Relative Time [s],Absolute Time [s],Thermocouple 1 Temp [C],Thermocouple 2 Temp [C],Thermocouple 3 Temp [C],Thermocouple 4 Temp [C],Thermocouple 5 Temp [C],Thermocouple 6 Temp [C],Thermocouple 7 Temp [C],Thermocouple 8 Temp [C],Thermocouple 9 Temp [C]
4.680809736251831,1720461179.1949286,23.447822314406693,23.852194819076406,23.783154827035556,24.090222600075567,23.633052983650217,24.095070351105903,23.86050703480724,24.113076096134357,24.07036968213642
4.91906476020813,1720461179.4331837,23.25062198240594,23.69571069088587,23.71441574158293,23.92361358557322,23.57192607839105,23.98410268743086,23.652988090847664,23.9808705294542,23.908606232587502
5.075641632080078,1720461179.5897605,23.42078491561663,23.720102161237023,23.830247128613735,24.001100135175843,23.629345533884777,24.06435519348761,23.862803597172505,24.04565608448907,24.044963518785387
5.2499871253967285,1720461179.764106,23.398775043923052,23.675697997692016,23.731120453050185,24.024120386221217,23.474768303102273,24.0732923991275,23.78815649120656,24.018579739809027,23.89413870327947
5.403187274932861,1720461179.9173062,23.378922070841856,23.60966165636358,23.696955982187,23.98419331317512,23.53644919671153,23.95464180343787,23.775006970567322,24.00243173936332,24.011666270174633
5.557780027389526,1720461180.071899,23.40070141582504,23.70741375133103,23.756599906435337,24.200792241014828,23.66446066889185,24.074525047141154,23.892831795441193,24.087452520439342,24.030201126660213
5.699166774749756,1720461180.2132857,23.463999091951834,23.62243789569425,23.74229123828401,24.097617913990703,23.567933810953715,24.165945683174098,23.802328483629953,24.230114510416637,23.950098541662076
5.856281757354736,1720461180.3704007,23.46533129804078,23.777105781663955,23.669495786720933,24.0218447656926,23.568342071936407,24.14142382248368,23.826519731061797,23.93573055321677,23.890708376101408
6.012705326080322,1720461180.5268242,23.535030492989552,23.769432145370835,23.82692800484097,24.18315065654128,23.822771778179437,24.12798179530264,23.890885738477436,24.20600221739061,24.13144435770834
6.1671302318573,1720461180.6812491,23.435225602763442,23.6915869147737,23.726687621127706,24.070246045281145,23.558794549917096,23.948812240039814,23.85738174780305,24.032616851706862,23.871466232366082
6.322149991989136,1720461180.836269,23.266888156211685,23.632529238435353,23.723516526967042,23.999203749915004,23.612206180929313,23.987891310771378,23.718667139776446,23.947488792624153,23.962033870091155
6.463181495666504,1720461180.9773004,23.3148481126487,23.714881659350667,23.701718884482226,24.083144703117796,23.654608720625646,24.027278239871777,23.82918336609385,23.974410252721437,24.035819990500592
6.6017537117004395,1720461181.1158726,23.47046640394537,23.77900668932301,23.756839002849713,24.098079580663697,23.61712615333558,24.085383079290715,23.95333076833226,24.098079580663697,23.99373307192086
6.744872093200684,1720461181.258991,23.48513736534651,23.67405672437201,23.800600775183337,24.062186839621823,23.553734065238242,24.077422945420157,23.865021822986634,24.07442191099065,24.092197149216066
6.8991899490356445,1720461181.4133089,23.34416098104954,23.7367945264529,23.761733595456374,24.083812510262224,23.6601264531046,23.976001605472316,23.910894399008278,24.139214427145337,23.929826678903275
7.038188695907593,1720461181.5523076,23.34812922773547,23.60912964342258,23.68395380951693,23.978351499920084,23.591346612231526,24.03583645176504,23.68603218625255,24.015751689724095,24.056613405568182
7.182747840881348,1720461181.6968668,23.422240952918454,23.78921619968493,23.787138017236263,24.094666368900878,23.61786846518647,24.111287073217543,23.930292534835214,24.014329419316244,23.93052341418997
7.338162899017334,1720461181.8522818,23.2695284382408,23.59105800803836,23.640249343600857,24.013385441092552,23.4815821165428,23.957977179675257,23.737009008115777,23.95382144755376,23.91087796337313
7.477269649505615,1720461181.9913886,23.41465964805838,23.696197206221665,23.724139189804436,24.03814914364228,23.564329219361927,23.996132414173815,23.739379973692696,23.95757718950168,23.94718782599198
7.635065317153931,1720461182.1491842,23.29797614122747,23.668456597822765,23.64859607769577,23.96701412435522,23.609566806568075,23.993794912561615,23.873045341483312,23.994025778590437,23.896134237748665
7.7746217250823975,1720461182.2887406,23.34038248161448,23.736481172035493,23.723087731925837,24.12274257904876,23.647573400531034,24.072187683065586,23.85816928940853,24.047948209012585,24.01470463228144
7.92913818359375,1720461182.443257,23.37398455272358,23.644447426469625,23.77399673285915,23.956402220738415,23.560613310661545,24.079451125290735,23.867973964678047,24.11223106068955,23.952477357417376
8.068204641342163,1720461182.5823236,23.488808171615027,23.697125043984112,23.76709407491302,24.099559443160306,23.590200108716264,24.018761129835102,23.804501439656466,23.97443496068811,24.11110157419409
8.208269119262695,1720461182.722388,23.360062840554153,23.72498040775997,23.73837382490521,23.99535736559822,23.532374352584213,24.076157399717044,23.839511966580545,24.044068954442494,24.01821283483645
8.364333629608154,1720461182.8784525,23.3221454361797,23.675990786867168,23.78960379546942,24.029953699844366,23.60717072023099,24.032723997875678,23.755428754464397,24.177462350655205,24.00871451631935
8.502773761749268,1720461183.0168927,23.443124326238728,23.742897366106927,23.792312848045672,24.153394203331157,23.685628058492686,24.211562454313,23.80593635330427,24.152470872891847,24.115075337265203
8.644654035568237,1720461183.158773,23.38128564526343,23.691467306170566,23.791686114325085,24.139148464759778,23.619414985684116,24.114910468669084,23.945460397330173,24.11675719196773,23.99301986594684
8.786759853363037,1720461183.3008788,23.495807440638956,23.83481979499808,23.70019723318425,24.048381020780827,23.653779816471005,24.075159826808115,23.833665297429885,24.041455361276117,24.071004537623146
8.9413743019104,1720461183.4554932,23.45859173540145,23.71610225590853,23.73549972192365,24.12960997686897,23.700861150670896,24.110219454317694,23.935920228261786,24.14138262701696,24.0785937006823
9.079094886779785,1720461183.5932138,23.38288608609642,23.648266152518737,23.76603847019375,23.991387293614498,23.644802070719695,24.11443228157293,23.848471614226163,24.028556181296153,24.010549051015982
9.235426187515259,1720461183.749545,23.372293358598835,23.626821699691085,23.7439035490007,24.030205208631713,23.600262946652993,24.074990827041137,23.759144059964374,24.00273271486727,24.007580851886896
9.376029968261719,1720461183.8901489,23.50307059133433,23.71023015087447,23.79867106286312,23.968374612052774,23.669817454007312,24.10157933347606,23.791974740582923,24.11519901015472,23.926355216960314
9.5185706615448,1720461184.0326896,23.33919028926447,23.644764965815867,23.73690584659245,23.969879400137525,23.599269015875866,24.051835576889065,23.787476144021124,24.00035395959903,24.008434193569894
9.66050672531128,1720461184.1746256,23.386379864246994,23.62635565515039,23.606956272771058,23.956323879001477,23.590327959869455,24.043359902017464,23.74667040846838,24.013117396556986,23.853811086438828
9.798189163208008,1720461184.312308,23.434446025936335,23.7480765574822,23.77948089793682,23.99212939242881,23.633535509975466,24.0934750710728,23.91039965008419,24.049844478180674,23.97204383198798
9.937892198562622,1720461184.452011,23.374310459621206,23.70897247360123,23.77870984239361,23.9876646145057,23.6941931277038,24.013752314474324,23.739916088357713,24.014675761537365,24.05715348779499
10.083568572998047,1720461184.5976875,23.422476066157564,23.661289357101673,23.654592201415603,24.007869397046992,23.580689858415425,24.06304429268354,23.791298504526207,24.051270802667634,24.009254574762625
10.236016750335693,1720461184.7501357,23.333328675668035,23.688094175063313,23.84326829351478,24.112231158170587,23.606110948314022,24.073910855346615,23.8185619709798,24.1108461102779,23.925464780586772
10.379249334335327,1720461184.8933682,23.354324996164884,23.746493101312886,23.794753883880382,23.979926365927167,23.568672016727856,24.069269024968953,23.88642046265483,23.98639067793128,24.037872949124854
10.533908128738403,1720461185.048027,23.343921770074417,23.6483404502212,23.703764278307723,23.91227149392082,23.6591945021504,23.967220314049726,23.7293968581863,23.89495512085522,23.818759845271412
10.67120885848999,1720461185.1853278,23.272766718060787,23.711380645004805,23.86909130524612,24.081491641983988,23.639098682794035,24.06463963559368,23.856623055278032,24.101113515400385,23.99584383266207
10.813497543334961,1720461185.3276165,23.43735407902843,23.640830908449185,23.79070078595124,24.013274223442526,23.589330093824007,24.079991305743757,23.826029240800494,24.0301270175695,23.93777977040819
10.96934175491333,1720461185.4834607,23.351561283428065,23.772132973085505,23.73033701545019,23.968852882516313,23.67283612311927,24.021490276634847,23.873960692235514,24.054964501354263,23.982243335744545
11.140805959701538,1720461185.6549249,23.4224183302829,23.642294742782152,23.68917450186119,23.982878193197894,23.57601307013387,24.00111664119684,23.820565779955757,24.07406740741549,23.933702136686218
11.299230813980103,1720461185.8133497,23.370556736448357,23.70914562888977,23.762719090855267,24.010924214030688,23.514227153371394,24.014387145425673,23.837301949322473,24.00630695520372,24.006537818605587
11.455204963684082,1720461185.9693239,23.319678616283568,23.64535055184473,23.670753553604122,24.01225166167907,23.55966885063215,23.989626935480246,23.808612380360255,24.0297970471802,23.86472083866944
11.609256029129028,1720461186.123375,23.347576529759806,23.682015691764565,23.718040398084383,23.98518691341271,23.605574764239535,23.93831973946722,23.776462582846587,24.16109414320226,24.042902363637797
11.777225971221924,1720461186.291345,23.37173237946051,23.71032091237566,23.685611612541226,24.01902502012985,23.596699747459578,24.110442076513447,23.89342959902215,24.060579170571287,24.020871904622073
11.934858560562134,1720461186.4489775,23.434478996333556,23.65435301362617,23.76057899563217,24.027253478375325,23.639111056441923,24.065806259711174,23.80629920584769,23.978079405868556,23.9702298198936
12.092374324798584,1720461186.6064932,23.35205624017999,23.782095110201766,23.89523541703632,24.042069581439144,23.5172090803455,23.97812063288743,23.795256926421555,24.042531293172637,24.042993004712155
12.266286134719849,1720461186.780405,23.3567257317109,23.602712608373977,23.66876174634785,23.955313801014388,23.52418752209413,24.012799957133137,23.78953369735443,24.066589501535493,23.957622539888256
12.420034646987915,1720461186.9341536,23.453147295477702,23.681331170280615,23.875065704752615,24.12578471776898,23.689644673497813,24.048912866579656,23.88891907518412,24.078461842359864,24.00920517913767
12.571650505065918,1720461187.0857694,23.445623875154812,23.745165319555973,23.765947758553235,24.04277864199202,23.627852661331378,24.107416355020067,23.834757928628687,24.06009268805952,24.008380594559306
12.713534116744995,1720461187.227653,23.395376177617734,23.709710559038953,23.792378820747032,24.155999308930046,23.597244077381117,24.12114312871785,23.908981335043347,24.020261723308487,23.910135753681143
12.864911556243896,1720461187.3790305,23.47099846888909,23.75252169156884,23.82063999245534,24.04205309867216,23.63705734239709,24.04713191714754,23.912766184065045,24.093763607554152,23.99080188993823
13.010719537734985,1720461187.5248384,23.352213214369826,23.806959159599028,23.76839731230942,24.070621364223385,23.63099534772184,24.049382966637065,23.794028391001703,24.078239385045798,24.016832017168312
13.164374828338623,1720461187.6784937,23.325181609999774,23.60443243884568,23.767238489738904,23.97411760806533,23.542767716060084,24.023753577363554,23.835586780907366,24.041298779272083,23.966960609094315
13.321093797683716,1720461187.8352127,23.41391720956925,23.68229195015592,23.836543288843544,23.99954594158688,23.579753690653444,24.064417049070705,23.850628039770584,24.05310528105555,24.07803718662082
13.462615251541138,1720461187.9767342,23.382007491327705,23.55731804267496,23.758925484571403,23.908548436102336,23.609513187685046,24.023753491120246,23.816652795006355,23.945720122744316,23.874838865001337
13.61668872833252,1720461188.1308076,23.384321644683144,23.86214400081749,23.796106433491303,24.074545678847294,23.692424094263345,24.06877443639672,23.842979659761475,24.046612583652408,24.055846743287372
13.77218508720398,1720461188.286304,23.37434340706011,23.766042592204645,23.693302349966224,24.05903323522709,23.647115582246954,24.18507138530501,23.934827653917612,24.019325913421003,24.025789993798988
13.917657613754272,1720461188.4317765,23.436665084971132,23.72212274289381,23.850508451840376,24.068914499577012,23.552843229015824,23.953945049920907,23.845659622953008,24.039826979890808,23.993193000656547
14.072903633117676,1720461188.5870225,23.418702023718204,23.79653114633395,23.872497067350324,24.1179073593471,23.688692115279444,24.04542121456717,23.84732960665705,24.085358440240043,24.053962824182257
14.210841178894043,1720461188.72496,23.35312051424157,23.711574483122195,23.59864629368393,24.00457961410904,23.581555951234574,23.935780053326262,23.772998874639864,23.993498096408008,23.93739619973467
14.353300333023071,1720461188.8674192,23.329558280183953,23.667235969217124,23.761684124660263,24.07245148512742,23.6097317926451,23.96717905697101,23.74967649458446,23.959791139693458,24.057907868360804
14.495330333709717,1720461189.0094492,23.450507475741222,23.75258768337201,23.854648102896384,24.131456675438656,23.689314718783326,24.078824548898908,23.84979929222465,24.113912913590088,24.02457388431303
14.634632110595703,1720461189.148751,23.497127300629316,23.807738292915058,23.797347516029273,24.131188769303847,23.676576420002355,24.088944751986144,23.919028914595163,24.07694069099262,24.065859902867825
14.77733588218689,1720461189.2914548,23.389246645278522,23.699887931212203,23.713050727906094,24.038145021586182,23.61374856578152,23.99612829196016,23.822041889538358,23.988971436212942,24.009749275823793
14.931671857833862,1720461189.4457908,23.564778806485645,23.839120311417037,23.959642730154734,24.073919036548407,23.71766101614794,24.198339717253585,24.005123814475038,24.22811548703834,24.087308209894672
15.073842525482178,1720461189.5879614,23.43152570786914,23.676341309376326,23.74515706728474,23.97235712767355,23.620685161572222,24.040923544254596,23.763168537166415,24.018761129835102,23.89547454783079
15.215678453445435,1720461189.7297974,23.318098693190258,23.627143333799676,23.739606772155632,24.015982553429073,23.471938861467084,23.92409588016005,23.754847342459488,23.963806640470665,23.996128294246564
15.373600006103516,1720461189.887719,23.20035720942672,23.56763690973029,23.624219502091435,23.914939022866204,23.549622252579145,23.962961555866706,23.714514701462136,24.023448494087674,23.885154764735585
15.528478145599365,1720461190.042597,23.419997094660943,23.63895022686065,23.76180367269867,24.132590230996858,23.50753734941345,24.018089165163257,23.893648073146718,24.030555585881196,23.957371058491916
15.687744855880737,1720461190.2018638,23.421160270665286,23.81953907589711,23.779361292623538,24.055957950847045,23.628335163574455,24.101204206525082,23.84470717126997,24.003783934990985,24.039336409315897
15.82906174659729,1720461190.3431807,23.393664366709,23.56412300869874,23.718159928728934,23.927126182253875,23.55811813649698,23.875176946986453,23.864786805874,24.163521931985105,23.9615267710339
15.973116636276245,1720461190.4872355,23.54434736604089,23.776207016969956,23.712011706303247,23.97615838025095,23.634418147829948,24.134985296087237,23.84801820708949,24.073350251223612,24.034797734574692
16.126868963241577,1720461190.6409879,23.395512303577917,23.717929011065763,23.717236239265105,24.010009002149573,23.553037071513554,23.95367707312409,23.89849669081008,24.034711028034128,23.914889478127197
16.299078464508057,1720461190.8131974,23.387159509116675,23.699186948228714,23.763152090413367,24.10531408220263,23.543530663421862,23.85828471959298,23.90169202587958,24.028209939535532,24.005585541727143
16.43859338760376,1720461190.9527123,23.38751007931124,23.732097746282378,23.7618861400293,24.088812788861574,23.675982542295372,24.036409475846902,23.877799209185785,24.163142714554358,23.951912528898802
16.578760385513306,1720461191.0928793,23.426299691199436,23.75794408718859,23.82721655871712,24.04862834204893,23.650101286592715,24.056477368286874,23.890250724887334,24.071021003990534,24.024619207900262
16.71989393234253,1720461191.2340128,23.35263786443642,23.68245688221357,23.736955319211024,24.028337690055952,23.612020597414027,23.995555251722347,23.80415095846837,24.008945379836714,23.823085072828462
16.87375044822693,1720461191.3878694,23.36774351991743,23.749053809050437,23.594328346758836,24.058208767596234,23.65044769761274,24.030275257084156,23.85249993063754,24.118690463840657,23.98525694878976
17.01534914970398,1720461191.529468,23.335188971329394,23.65947073244762,23.750917635687628,23.996816766184057,23.571480583119705,24.057994399835525,23.799640038316507,24.063073144628227,24.052684777905554
17.185282468795776,1720461191.6994014,23.422929839798197,23.573984018322342,23.658740865871163,23.978079460906553,23.58645546069886,24.009708107313436,23.80907012180979,23.96815203397455,23.939523603512914
17.32392382621765,1720461191.8380427,23.43093181091897,23.465116881546543,23.705768384367605,23.88864693880384,23.553346446384325,23.969916554527455,23.813143939008118,23.995312078529082,23.956987698905092
17.46392011642456,1720461191.978039,23.322652880328487,23.565644898828573,23.68504253929748,23.998140174347817,23.567261587399848,23.9988327695521,23.73307508821677,24.068782637525892,24.00298833161679
17.62142586708069,1720461192.1355448,23.34742797406481,23.58256221681366,23.731978158223363,23.978112384872162,23.550228443716318,24.03559734921849,23.76846306086596,23.923394989480503,23.898228691833264
17.795950651168823,1720461192.3100696,23.44037317732497,23.775015212998092,23.814962251082903,24.1250220534657,23.50412232106189,24.028527329485954,23.843593919717904,24.056922590114144,24.008673296850553
17.96747326850891,1720461192.4815922,23.285150844141892,23.682885804441874,23.715677546463425,24.004064318200037,23.584042835612202,23.989981530304537,23.777101709624933,24.025072732104988,24.012606249207376
18.140018463134766,1720461192.6541374,23.602667249197825,23.848599436240995,23.838209044501788,24.263211399706925,23.807037281591494,24.116868477058013,23.874228650294285,24.308449106989343,23.99821020807379
18.312853813171387,1720461192.8269727,23.88873349674947,24.18538468568654,23.745573580648774,24.561796830210987,24.098359915037076,24.032567380155022,23.991012170726105,24.558335628996915,24.055191222585833
18.46729564666748,1720461192.9814146,24.052977531134907,24.19540497963704,23.804550983174185,24.655801356180547,24.05089984655761,24.100763191905827,23.93685202558893,24.660415876360464,24.040742220963033
18.621976852416992,1720461193.1360958,24.34476244812579,24.59283592444783,23.83990373249109,24.87061126218598,24.44630630640184,24.21989674569383,24.086013836089094,24.883529320350434,24.18804332768278
18.79693365097046,1720461193.3110526,24.476784288507435,24.77027706614285,23.995765746845827,25.13772365065203,24.58893000224902,24.353087601397675,24.24345664861646,25.248187028318846,24.350087321419345
18.947574615478516,1720461193.4616935,24.829203220662897,25.013970018442134,24.03441837392171,25.42675588301871,24.857116323839033,24.465806246204508,24.329414641503753,25.430214317349588,24.417113395510572
19.08841824531555,1720461193.6025372,24.809054709596783,25.005126959922247,24.073815931913014,25.432672223941324,24.838121769726172,24.390033813106278,24.3196428382841,25.48224178687166,24.452804894449315
