Relative Time [s],Absolute Time [s],Thermocouple 1 Temp [C],Thermocouple 2 Temp [C],Thermocouple 3 Temp [C],Thermocouple 4 Temp [C],Thermocouple 5 Temp [C],Thermocouple 6 Temp [C],Thermocouple 7 Temp [C],Thermocouple 8 Temp [C],Thermocouple 9 Temp [C]
1.9726898670196533,1720476977.8561728,23.780391198139263,24.350823841258105,24.232652509379296,25.015068737805787,24.18625754569226,24.759708841005672,24.284354035882803,24.570283987914166,24.480982180382163
2.1762094497680664,1720476978.0596924,23.74498993419584,24.197265800517442,24.243429484843972,24.774633249581324,24.086465031112724,24.64797085423668,24.10608681566677,24.563982572267307,24.472372599055937
2.3168725967407227,1720476978.2003555,23.665570855735496,24.30415139870333,24.21321212163813,24.68559851660633,24.125497043178413,24.581308002819476,24.1995936615385,24.590537654039316,24.380313002780746
2.4569995403289795,1720476978.3404825,23.6774956253545,24.232978722533506,24.301990462222037,24.835934006157295,23.973280263387146,24.645599491612078,24.174811607486312,24.648829688015436,24.34330310185336
2.597118616104126,1720476978.4806015,23.737385267432753,24.248984649179356,24.217593714417482,24.73727463837616,24.03730926360505,24.612684522830595,24.150654160981077,24.55546058832462,24.296069365296763
2.7377917766571045,1720476978.6212747,23.72655221038758,24.263776759281164,24.259391374267885,24.7421397295381,24.073111722988855,24.647775982723722,24.180220616709942,24.726682169388614,24.35309630668485
2.8775529861450195,1720476978.761036,23.811228681066467,24.201618659655608,24.309176603942362,24.77736890486959,24.054344108082468,24.611943905949236,24.11621106001756,24.590254527293382,24.356027942360534
3.0176851749420166,1720476978.901168,23.85391310015295,24.164654413473624,24.307759762998092,24.862462126980652,24.083399195058036,24.704432996844428,24.214743410977356,24.630601311409148,24.505075975636235
3.1584787368774414,1720476979.0419617,23.695421971771164,24.207964149576767,24.125788785143826,24.799398498040162,23.981505359950436,24.594059630671264,24.10870661663387,24.496221672401777,24.329138490266246
3.29844331741333,1720476979.1819263,23.824145982693558,24.40217167668569,24.240613685113725,24.80227104742358,24.127739754398796,24.741827155351398,24.23091944775547,24.645617553809835,24.471865044637553
3.437067747116089,1720476979.3205507,23.76785707282897,24.30921584559983,24.33875780874259,24.92366256965178,24.170958102075893,24.79724821277287,24.204196948146766,24.654668418582816,24.51668510306302
3.578077554702759,1720476979.4615605,23.706709355951023,24.276487808403086,24.090672752057205,24.750231092455127,24.049581448505027,24.613413547009635,24.078437861700507,24.619874120926823,24.45257907791522
3.7320334911346436,1720476979.6155164,23.72449619208448,24.142386630874054,24.21463555305598,24.845745049495925,24.036659189298035,24.654027889504878,24.128998129176356,24.612957732719337,24.4632000788972
3.8902039527893066,1720476979.773687,23.681367783794734,24.283934164261723,24.180066979155278,24.71799224884384,24.016860228089488,24.580016944606516,24.163216485987466,24.551635244442217,24.27885644185961
4.028228044509888,1720476979.911711,23.581982967953106,24.243693594241424,24.05902724526734,24.701993187250018,24.097809755886278,24.520404009729134,24.169369126011777,24.66692368170693,24.327706488955467
4.168233633041382,1720476980.0517166,23.774763562416123,24.22033347399969,24.168628927850634,24.820527442475818,24.033354618978315,24.65626263023371,24.18270942524151,24.68048863299654,24.44605063210113
4.306473255157471,1720476980.1899562,23.822632640401366,24.20678641360149,24.17031604543428,24.782764635626105,24.09806420482166,24.710783978824935,24.17885668343034,24.56934659606105,24.444737301963954
4.446906089782715,1720476980.330389,23.615074772091308,24.186978089708806,24.315771122091917,24.714748589421074,24.040163286571225,24.627996665977854,24.100876820034276,24.617844393962468,24.301923135381244
4.587460279464722,1720476980.4709432,23.815613883413782,24.251011562456885,24.19723105536786,24.844729469956988,24.102127738644253,24.63409234581182,24.202539978147446,24.659933921804907,24.41672201404265
4.729780912399292,1720476980.6132638,23.788871973570263,24.25036231991668,24.158726086019037,24.697815443019028,24.046536297343376,24.6765892167841,24.219433061936595,24.57114411996186,24.398533664720834
4.867545127868652,1720476980.751028,23.76283064365378,24.268647997875252,24.293805808181467,24.87919602434093,24.105916105736778,24.642724196828766,24.217638187541045,24.662105282804664,24.426971008849016
5.006191968917847,1720476980.889675,23.73538876544016,24.364697284822167,24.276532717361555,24.779344611901443,24.068556258556416,24.649452579371978,24.24791232659598,24.574463453036607,24.374390337999344
5.146232604980469,1720476981.0297155,23.74885464318336,24.302916902720156,24.191203509840964,24.788645104130453,24.101639926216645,24.675827761483447,24.086635002925096,24.580766047131977,24.347229803429528
5.288362503051758,1720476981.1718454,23.756666057405315,24.23294222678969,24.166465269820222,24.738542695099092,23.99679228434827,24.557882593175982,24.08728780514124,24.463041371554116,24.288798219571277
5.427203416824341,1720476981.3106863,23.77061758230902,24.259351532224684,24.286817602669455,24.81753888069821,24.086691904416284,24.585207018956815,24.17510256874672,24.55705620117387,24.383520384404726
5.56788182258606,1720476981.4513648,23.83480355600166,24.287734895644586,24.222184534045816,24.80046159977215,24.21595242938303,24.634347914430172,24.21895307679114,24.688799079404077,24.486208532905792
5.707639694213867,1720476981.5911226,23.721268496480413,24.268420427576206,24.26172696650601,24.791999043134876,24.094377158683514,24.714481873066365,24.094838848433177,24.588043227167006,24.37320238144558
5.848661661148071,1720476981.7321446,23.6869526395149,24.289054353331075,24.2618191486783,24.847687889265575,24.05407075378945,24.716881155146343,24.23896875131815,24.717573295624245,24.384141451356008
5.986860752105713,1720476981.8703437,23.76247421762951,24.13533807878922,24.21151141701491,24.73696298110803,24.02499277830058,24.615372389731768,24.031456825353835,24.44299969613873,24.38622843834147
6.126528978347778,1720476982.010012,23.72277044581749,24.23622314638363,24.29415619975535,24.80572641563329,24.040012783420227,24.537164636759027,24.13558315374867,24.597158401010528,24.32923767476609
6.266640663146973,1720476982.1501236,23.76760455493419,24.34312128280144,24.27803584831767,24.821910878677254,24.08968175217216,24.74647220608565,24.12453893136976,24.640572409511662,24.547584368949277
6.407306909561157,1720476982.2907898,23.773392507260457,24.262356033440508,24.25612415719552,24.884902898334918,24.082540632131273,24.704959218658434,24.195419212714988,24.741642459432693,24.380985729298356
6.5499489307403564,1720476982.4334319,23.76979335629055,24.340693086442133,24.29037904215268,24.84947327123831,24.138038032566158,24.713129621104212,24.24098594314411,24.701132408305803,24.44431426527614
6.68829870223999,1720476982.5717816,23.797796363862265,24.25789810215049,24.310290835938055,24.861300992521148,24.16441585807563,24.677661867127817,24.261821873862726,24.70165667746718,24.30959843729644
6.8275651931762695,1720476982.7110481,23.797678542621757,24.26724352144233,24.24647055545224,24.854954827369195,24.103357206333435,24.5663305155987,24.1811485526548,24.630706589517892,24.45579786345276
6.982782602310181,1720476982.8662655,23.670862703487032,24.236505056126827,24.15479349451304,24.982936604635448,24.083694868581418,24.686501775077314,24.239736461638998,24.659737926613424,24.419987625719944
7.122091054916382,1720476983.005574,23.78295136533043,24.19274078729777,24.24582907571529,24.741964583889594,24.04800444884374,24.60883778984805,24.12256797607808,24.656599185852144,24.29037509000611
7.277894496917725,1720476983.1613774,23.749156470633192,24.288216412604196,24.26905950259697,24.859307351096113,24.063159292226157,24.65813285413341,24.17003832798588,24.683973860264114,24.367379366153354
7.4166107177734375,1720476983.3000937,23.664746161911957,24.262013035759548,24.216311772715677,24.870719326903007,24.066268986374563,24.673007787098413,24.2082330684455,24.59409771509652,24.326176238403626
7.556702136993408,1720476983.440185,23.83010125919873,24.35596655708762,24.290420278982246,24.816987351421925,24.218637988635844,24.67487158649038,24.228793967994005,24.706018673597615,24.434201516644226
7.695509195327759,1720476983.5789921,23.916481462597623,24.379302916635087,24.277291227316148,24.804787411128476,24.155880321765217,24.77341244712051,24.266674080159,24.686434474508197,24.442305385622088
7.8345067501068115,1720476983.7179897,23.65857990545619,24.108352011492336,24.163752689913903,24.697994510887852,24.104196847892023,24.58101442904163,24.08457502956759,24.576861059405076,24.387635245912264
7.97443413734436,1720476983.857917,23.73335497491663,24.285116998829533,24.223028753952914,24.77039171298406,24.05775071872297,24.585583553373986,24.147779550728973,24.563432158728578,24.39289752546288
8.116617918014526,1720476984.0001009,23.784860273172157,24.18587764331742,24.223270765589138,24.72310791745817,24.102546409267752,24.696575685946605,24.145482405960106,24.571750174649598,24.37721542546982
8.254614114761353,1720476984.138097,23.73562490734085,24.249994857457093,24.186519670542474,24.738515104219083,24.001612838092182,24.680605610123568,24.109190388689317,24.60284977707583,24.41639779444496
8.392621755599976,1720476984.2761047,23.721530236343384,24.172661602609438,24.24537015678751,24.707591217881635,23.990522841158764,24.667676699597994,24.11149035594974,24.574690969610664,24.27306738507117
8.53720211982727,1720476984.420685,23.74478188314855,24.113958290819866,24.138657979257488,24.7155949540724,24.090181430289164,24.655607704940593,24.07425295421919,24.646378604345287,24.41354872244966
8.674771547317505,1720476984.5582545,23.828451663973755,24.29361824820447,24.336315968543506,24.840484456368326,24.095109705572735,24.808879827530664,24.2379933158804,24.70321681488036,24.575392402386495
8.815224170684814,1720476984.698707,23.74970896559357,24.312079593643944,24.308617601713085,24.805647369012892,24.120730437562663,24.769658391868774,24.27099658376934,24.683141560989483,24.494626449848468
8.952950954437256,1720476984.836434,23.769868672992423,24.26645048008317,24.275913596421553,24.808255034757103,24.100486455682734,24.723817681163982,24.20228377959229,24.747580767908765,24.396849637834013
9.094982624053955,1720476984.9784656,23.802868722776005,24.262275909692704,24.33428613519844,24.828074560141147,24.070918063194302,24.631970398698247,24.200648016013368,24.60589742299936,24.47275402117654
9.250298023223877,1720476985.133781,23.728609042688657,24.22036230169002,24.170042731834492,24.81940279573355,24.047465683487186,24.6519076361386,24.148575423882363,24.608530036947982,24.359536968247962
9.402190208435059,1720476985.2856731,23.720874752215593,24.174083842549418,24.21170818723699,24.753539891764376,24.02103410380781,24.604724487911753,24.215632124308772,24.61672276173673,24.26964253663691
9.542068719863892,1720476985.4255517,23.797771148959065,24.22463567900657,24.259950190504117,24.721703659641836,24.059819590266752,24.705092229784377,24.325036699847466,24.674406561413008,24.39865826422932
9.68201231956482,1720476985.5654953,23.70297523574138,24.19981806172683,24.17373478151632,24.733350129814223,24.0435399367863,24.610143983466465,24.209050932606512,24.598607114573273,24.361151282637895
9.823269128799438,1720476985.706752,23.82644736298598,24.25283913641001,24.24729964449877,24.75543123181456,24.070482828633594,24.799033679210428,24.22167913020594,24.7187484554392,24.486857062683182
9.961847305297852,1720476985.8453302,23.74837591272181,24.273587892352108,24.20065038720439,24.660121653453835,24.11801279513673,24.622512734795208,24.062378956882114,24.614667766181405,24.43514101746146
10.100084781646729,1720476985.9835677,23.671155782520284,24.23310493898953,24.153239785944724,24.753470604292136,24.03620144729628,24.604655190978114,24.068982673337143,24.52458640394648,24.264033811147034
10.239652633666992,1720476986.1231356,23.68611343014959,24.18965780903447,24.137490145250364,24.649825877280396,23.955114678076697,24.66666887379101,24.126179129922,24.538840177559035,24.42415079316738
10.380840301513672,1720476986.2643232,23.746979208251435,24.16024449939576,24.150318718423186,24.653419401615317,24.017581628558364,24.62273227859777,24.12608096900603,24.55327928592357,24.386897175608933
10.520320653915405,1720476986.4038036,23.672591881622296,24.26616156305707,24.23223214810641,24.81304152307554,24.03879135433441,24.64116153165096,24.192992739566183,24.59178428046305,24.312091546000005
10.662267446517944,1720476986.5457504,23.704832304107395,24.2236021960364,24.235373837399287,24.76496659646186,24.11465081302152,24.621228908752492,24.19451877547801,24.62215184361312,24.40524069383635
10.800125360488892,1720476986.6836083,23.692379409991567,24.34663834558556,24.290785302479005,24.748142315648916,24.10797361964348,24.597249526775183,24.103356768636967,24.648703084519052,24.42395087069385
10.941250562667847,1720476986.8247335,23.729117208690194,24.224563327339954,24.229179668305463,24.75646838027948,24.009882020933453,24.653338283014644,24.18555447011704,24.64457062105426,24.28041974722443
11.083315134048462,1720476986.966798,23.759569015479773,24.375708984392443,24.307394290944018,24.80673156286102,24.1128125471671,24.761745200326143,24.265618678881026,24.65538543516992,24.421403594564737
11.225075244903564,1720476987.1085582,23.76028092638609,24.267945922154272,24.2737161168925,24.8348950780882,24.124373698209876,24.63671557194459,24.212088866483466,24.510729425222255,24.42926910571243
11.365718126296997,1720476987.249201,23.733026618067544,24.204004131782593,24.1449121431753,24.749530968447843,24.082585113599833,24.61363627717059,24.198695216091494,24.550182191758786,24.331641188754034
11.504722118377686,1720476987.388205,23.59752477895945,24.301694326259693,24.2211417159319,24.81049268902999,24.01453992947222,24.611847271291456,24.23591398469873,24.552315811454633,24.337467941202817
11.647219896316528,1720476987.5307028,23.73686255051199,24.11342854796631,24.277544164621446,24.73490672162912,24.00654400270064,24.588396183646807,24.17367637400059,24.69891540635575,24.409557451829922
11.787687540054321,1720476987.6711705,23.68513725726444,24.32278325499897,24.231153076291474,24.8015817716804,24.10327347606765,24.60708799948312,24.131666804451456,24.582629624075423,24.36824928837411
11.92586898803711,1720476987.809352,23.66602551421823,24.062469148389997,24.140263392164467,24.71581523818743,23.92464208620309,24.517614076615832,23.968970261770433,24.462000532358317,24.27136999216935
12.063246250152588,1720476987.9467292,23.7389912634931,24.320523718227225,24.180189961445308,24.87222075058526,24.047918192031865,24.62121127447181,24.12594430487741,24.69112137958099,24.32860159452878
12.205655336380005,1720476988.0891383,23.840571510018087,24.276190109478293,24.207176744838407,24.762160901908373,24.19078831754776,24.59557989867142,24.29719331421599,24.755701171476787,24.29696251195697
12.344479084014893,1720476988.227962,24.054233006832824,24.5091505991764,24.104788729296054,24.958804236498985,24.33237605333802,24.560839057660214,24.157650442721295,24.89952241796254,24.239823420207205
12.48628568649292,1720476988.3697686,24.294354369208634,24.738328846793777,24.237806215664687,25.189732677590246,24.57151345689147,24.708797691517134,24.307279251586092,25.202185717022438,24.438596634874393
12.627456903457642,1720476988.5109398,24.483305053854515,24.90344348480453,24.252056112233284,25.530695357514816,24.702507861919536,24.703430727967657,24.492304772547104,25.257470358390623,24.47638214287415
12.765578985214233,1720476988.649062,24.749972761009133,25.1354150891895,24.306233818698722,25.51841500129223,24.990803747160562,24.896230889389745,24.51831876304028,25.54677142953122,24.57462167063859
12.921313047409058,1720476988.804796,24.939546638868343,25.31984879065833,24.439577868289717,25.810653693269238,25.13951594783774,24.930319945663353,24.65994308730693,25.70554940526383,24.76376467052009
13.060376167297363,1720476988.943859,25.223205865405347,25.37608687392678,24.533244043233548,26.06804644827082,25.28362296254119,25.11527686295639,24.725213163757164,25.915724428991943,24.845638063683932
13.20148777961731,1720476989.0849707,25.32500982302239,25.565943620187294,24.540047393052372,26.075301005649983,25.49747316428704,25.158284496790547,24.828678665881366,26.116085260782153,24.910801160438883
13.34026837348938,1720476989.2237513,25.522232261551572,25.774416036444407,24.38044692971591,26.207186116174658,25.5180824925449,25.09426110542663,24.80293194296457,26.119862635874444,24.88551773736879
13.47937560081482,1720476989.3628585,25.54650815952148,25.81228467856391,24.47767226224309,26.19734824835082,25.58569875416633,25.02813654101533,24.79884869683253,26.244809124503572,24.848908620318696
13.62235951423645,1720476989.5058424,25.75917837321214,26.028358932084142,24.681323365584955,26.513312819560984,25.858746154073945,25.17703002581629,25.080167032696068,26.49995360959413,25.081781486818457
13.762444496154785,1720476989.6459274,26.059552678641705,26.25493722671552,24.7393185377623,26.586180120486052,25.996183309375173,25.303716411038717,25.115539525896768,26.67346559457275,25.20063826908613
13.901610851287842,1720476989.7850938,25.936964036085765,26.137439932662787,24.785234290172536,26.62948394790311,26.03259800909834,25.19649293017445,25.07080225102423,26.528836034199838,25.120388387743954
14.039576768875122,1720476989.9230597,26.084606157928818,26.235982672170184,24.631970773317597,26.72706028526268,26.105113511178434,25.33201562914421,25.258457196498934,26.668336320658394,25.219485342978146
14.180217504501343,1720476990.0637004,26.286883913108504,26.60268623204322,24.870276759886917,26.873497095107346,26.24817963233225,25.521524509277597,25.368433487833737,26.895370825341136,25.32554566950964
14.319927215576172,1720476990.2034101,26.353403657376855,26.658362378665245,24.962948948225815,27.091466075470112,26.54758304559359,25.64042024502228,25.5120146186015,27.11172393144418,25.479507360305433
14.460404634475708,1720476990.3438876,26.32010430058396,26.675968857477162,24.8329522532206,26.93916331556835,26.420080791723098,25.606637746533057,25.38000862351159,27.02918256757122,25.403065640504497
14.599395751953125,1720476990.4828787,26.39589818834566,26.665840241572056,24.790970459321695,26.99649543181941,26.53801780960477,25.54578203356232,25.531258089078868,27.040697831996933,25.407220257180672
14.742365598678589,1720476990.6258485,26.521597464181706,26.820751664469988,24.950073059522015,27.147675779962675,26.633531008800404,25.57107358928941,25.531421383024888,27.178060816394467,25.619714712818656
14.897051334381104,1720476990.7805343,26.62134493482461,26.97872085184801,24.99760895988056,27.238618205353294,26.736952549802215,25.650624265079575,25.605672932927412,27.26370679914255,25.601062433962706
15.034084796905518,1720476990.9175677,26.831464946819743,27.10590102015873,24.91720901858012,27.319967347329904,26.920111834637083,25.77865362789034,25.676081824201784,27.36369603312566,25.71042717836706
15.174129009246826,1720476991.057612,26.874223029104225,27.246935866588156,25.114345136512583,27.432437927036368,27.08787548331485,25.815922235479945,25.727875472835205,27.5401339562777,25.766828985974207
15.328128814697266,1720476991.2116117,26.928661062714905,27.216882892493537,25.11006328823796,27.404691567682185,27.037328924169437,25.743418806963568,25.64960325752271,27.46728709268325,25.776379088029042
15.483580589294434,1720476991.3670635,26.944884487924522,27.258190654769667,24.991850509660576,27.546093199951677,27.008658160281556,25.712638886258734,25.767957846972468,27.500070848783068,25.709181356908932
