Relative Time [s],Absolute Time [s],Thermocouple 1 Temp [C],Thermocouple 2 Temp [C],Thermocouple 3 Temp [C],Thermocouple 4 Temp [C],Thermocouple 5 Temp [C],Thermocouple 6 Temp [C],Thermocouple 7 Temp [C],Thermocouple 8 Temp [C],Thermocouple 9 Temp [C]
3.9977622032165527,1720454906.427077,21.403036920070573,21.518730690060984,21.48957695741748,21.479858882137954,21.353053613138268,21.497443910542522,21.30191104143879,21.48332963274316,21.3153332933464
4.230151653289795,1720454906.6594665,21.586386817021854,21.827209590496967,21.61692622766244,21.705763520410994,21.500548210393667,21.649778321358884,21.527850673604824,21.68378618615176,21.520909430932686
4.38609766960144,1720454906.8154125,21.497744888772672,21.698796596311013,21.668722059919197,21.670341478164072,21.516717902048004,21.708050140784092,21.46766507928744,21.572940966008805,21.53106314301786
4.528792381286621,1720454906.9581072,21.600669077749583,21.670306132263452,21.73970761948133,21.702231339345893,21.575219264496383,21.631439461033544,21.58863832733485,21.701768661546517,21.61593869452721
4.675565481185913,1720454907.1048803,21.390481433035823,21.685943415551552,21.647539975046733,21.68825683467568,21.424265585582074,21.61491917367937,21.38006830943616,21.52329834186853,21.456197639850636
4.818260431289673,1720454907.2475753,21.418084310781893,21.764663425332472,21.727650630807595,21.73435928874712,21.517348975763685,21.647143666594392,21.44978514687841,21.60202953082175,21.449553757079332
4.965033292770386,1720454907.3943481,21.498123080423966,21.56753499607386,21.62167337515849,21.606866551117594,21.49025613194923,21.680436071044987,21.258619813255827,21.589051837446018,21.467811894712778
5.110786437988281,1720454907.5401013,21.630577439234898,21.72565971078112,21.734913037892728,21.659264893290032,21.547518583624043,21.614382591468374,21.55515377126202,21.695585880551736,21.522298966542472
5.256148815155029,1720454907.6854637,21.393863952377334,21.728883770432507,21.661563752118717,21.718011046042413,21.54264518567359,21.76057601532637,21.492899327027875,21.71592902319543,21.61876374373112
5.40088415145874,1720454907.830199,21.51236387265099,21.72289777719425,21.687040340847023,21.65187582815743,21.495935975621776,21.69097314680511,21.39204144358183,21.56557938997696,21.447345046441356
5.545616388320923,1720454907.9749312,21.661432667966768,21.927682163220236,21.857366872761418,21.870551320176663,21.560792259336083,21.84441358298961,21.67276861975412,21.84834584722185,21.646163657546087
5.690350770950317,1720454908.1196656,21.427620937291486,21.572001870976575,21.624057849176797,21.66801438917268,21.45538791028363,21.638633099386862,21.39568808994931,21.562284493312525,21.4498345693117
5.851392030715942,1720454908.280707,21.479366424957313,21.629293352027016,21.61564340877009,21.60176194380158,21.379867077628553,21.59620931074429,21.454376700531633,21.52286576008474,21.444889718471217
5.997147083282471,1720454908.426462,21.464254517313076,21.670401703270745,21.529503760521894,21.652819326388638,21.526264523827265,21.612101206740668,21.447594542402907,21.5799421238337,21.486930206338187
6.153090238571167,1720454908.582405,21.417344434549417,21.788675426059875,21.683419361486553,21.741484894559832,21.540440677213216,21.72159026304753,21.526789676432852,21.668381990027587,21.60198385059841
6.297378778457642,1720454908.7266936,21.50780190183579,21.666978989377654,21.654486238328108,21.725045356965477,21.572585940828283,21.639217135287716,21.49484465539335,21.67229993453871,21.529551236895635
6.441638946533203,1720454908.8709538,21.527656249654818,21.708807856548002,21.60215629002128,21.62043351089027,21.523491508381674,21.596603658874024,21.50984030608842,21.662539416465787,21.536448431618915
6.5863730907440186,1720454909.015688,21.42920063011326,21.530778072162484,21.598799855154663,21.59648625533797,21.515970074823777,21.624480499518544,21.398656227781682,21.650160568317087,21.50602084436763
6.733145236968994,1720454909.16246,21.53515447383874,21.725789632348445,21.7611831998168,21.76789166092433,21.55967970575233,21.67743978611716,21.454633992189294,21.727640303551805,21.60803452321033
6.877879858016968,1720454909.3071947,21.516382107650877,21.707714402440725,21.635534750071088,21.680416222963636,21.540444997704366,21.67208783517271,21.46871758718772,21.639005029793662,21.503424957995033
7.024651765823364,1720454909.4539666,21.548516741365706,21.670673536543877,21.52838738435721,21.68640490426537,21.44508974317412,21.553144129852427,21.45018032775867,21.61954509867539,21.54944222055577
7.169939994812012,1720454909.5992548,21.540809584020824,21.671295654668512,21.565797427985633,21.60975620270288,21.539421354514303,21.645847410062988,21.497542308670045,21.55446041806454,21.500318867262408
7.316712379455566,1720454909.7460272,21.49795985444287,21.61341270740515,21.549325083105472,21.607166056816254,21.37046236337041,21.57824593459106,21.462789544357037,21.597217617080034,21.37717310977711
7.462465524673462,1720454909.8917804,21.482382106401563,21.681585764766623,21.626062091883718,21.613800251298905,21.53027743353215,21.642025423561666,21.456466894178675,21.56452021069565,21.448136880480202
7.609237909317017,1720454910.0385528,21.569450941687652,21.75337188488365,21.722142109986006,21.643716916235856,21.5160042274405,21.659217306852252,21.480834469654695,21.717746739852494,21.549090582115767
7.7509143352508545,1720454910.1802292,21.565322910193064,21.762430212808525,21.603035029998125,21.681925696435254,21.463517135507875,21.57249524933301,21.617841903539965,21.650693970977564,21.396412944538618
7.891570568084717,1720454910.3208854,21.48885711523798,21.587884303116425,21.627215160047623,21.590429281751664,21.53073647778556,21.50806165337307,21.480064568970406,21.535826682946194,21.50852440936684
8.031209230422974,1720454910.460524,21.500174319043705,21.700531583175806,21.727135281392897,21.584393416190842,21.43376644615712,21.59341652424231,21.43376644615712,21.570280207387494,21.515676649792674
8.17186713218689,1720454910.601182,21.321380928856705,21.57498446329372,21.618480174335193,21.70176522525347,21.448421076353636,21.514133972361137,21.3593324587596,21.602979232535198,21.45420581306095
8.31314754486084,1720454910.7424624,21.465883696795352,21.777750350276126,21.62622337196554,21.702105039453343,21.489716262953564,21.647045061848655,21.528356363382276,21.65814980834511,21.505912870472795
8.453575372695923,1720454910.8828902,21.566195610464383,21.637685576511103,21.599049158210114,21.688119179518548,21.534960731336632,21.75034840568203,21.463927139377486,21.6631340025038,21.449581060220506
8.598308801651001,1720454911.0276237,21.599124218133095,21.77355613176618,21.71873092929865,21.7020746508826,21.468629937119204,21.70901479636708,21.619715044952535,21.682873362336053,21.531565201082486
8.742023706436157,1720454911.1713386,21.312349463037833,21.5509160756677,21.456744865750963,21.533100493050956,21.340119215324304,21.52615928211709,21.39010308345528,21.493072266695332,21.37413625019432
8.885739088058472,1720454911.315054,21.549678544366373,21.668827726800018,21.68756656747919,21.6924247353464,21.485587360653145,21.628804237521482,21.461291934054728,21.656334995923185,21.57906211449657
9.029029369354248,1720454911.4583442,21.454499170236005,21.734214172486734,21.601884397785483,21.65949137201639,21.446169142284347,21.651625530254172,21.43274841479766,21.585226419717326,21.438996014314156
9.173762798309326,1720454911.6030777,21.33242674037233,21.68874810746274,21.567518703727472,21.702859856770385,21.48144730281811,21.53235052380967,21.414806951553857,21.543225010328378,21.446739268367292
9.320534944534302,1720454911.7498498,21.465082822436244,21.55138681913205,21.554163247519263,21.634908099552245,21.44657173763816,21.58771122608832,21.36072268897997,21.522928040928885,21.502335477002838
9.464837789535522,1720454911.8941526,21.44951543481089,21.730850985309175,21.704016035060953,21.675792390927466,21.483760619668992,21.67255356757001,21.384030249411754,21.644097797041113,21.50389075890121
9.60651421546936,1720454912.035829,21.436705960165924,21.57113708601384,21.554941398639627,21.596586989864075,21.39736857859426,21.55285907939106,21.395748775240346,21.492470178098834,21.51560806346549
9.746150970458984,1720454912.1754658,21.455352978435236,21.641837092521445,21.60967884397553,21.544896899369316,21.445866004428456,21.61291784513329,21.427123216024228,21.575437414854104,21.5092652708421
9.886809349060059,1720454912.3161242,21.529399798545082,21.728363953219617,21.72489394445228,21.74455718820706,21.60898960620503,21.70268563900251,21.43916049430159,21.668909681376608,21.540737056027975
10.02703595161438,1720454912.4563508,21.384235509568686,21.7215714901894,21.609599900963655,21.61515246915498,21.473784969507104,21.58900889244152,21.450877631650503,21.64453436126043,21.53047288279791
10.171770095825195,1720454912.601085,21.458291611529283,21.511278256871474,21.653566532075345,21.61955776981281,21.427747981481755,21.567270221196296,21.44047459256873,21.56634475638598,21.520764690907804
10.316503763198853,1720454912.7458186,21.559646900929604,21.721824145917296,21.80070662102267,21.69429496270288,21.428222557899694,21.62465936686496,21.44488281341893,21.736629483015264,21.514760699766473
10.45716142654419,1720454912.8864763,21.401952944536955,21.706896867974855,21.566234778962233,21.54841943415665,21.381126810646418,21.643277174460156,21.38945730940208,21.549576283125703,21.44337269088389
10.600874900817871,1720454913.0301898,21.483690769283374,21.606085827014976,21.568373807542127,21.67942405364851,21.42514939211572,21.540609565221985,21.364985189788417,21.570918829472358,21.43185981975468
10.743571519851685,1720454913.1728864,21.4998673754636,21.680560687269555,21.716649662679192,21.634522457941948,21.460994929391994,21.700918710802128,21.629201337247252,21.647015426778907,21.48644727483311
10.8883056640625,1720454913.3176205,21.469025808650958,21.677022890337955,21.643708876893513,21.65203747112442,21.49100725931824,21.610625251812664,21.487073767453563,21.62635744440435,21.63190993139516
11.03303861618042,1720454913.4623535,21.489506752027342,21.773839708233982,21.60079599474305,21.787719085589163,21.383529013264518,21.637118836364117,21.476780683634328,21.593161110922964,21.57997346457907
11.175733804702759,1720454913.6050487,21.508010629404595,21.72988071952899,21.6459036639157,21.707441173144122,21.383059690318014,21.58251194524331,21.414761491173323,21.579735585465382,21.42795103433175
11.337797164916992,1720454913.767112,21.552941207917623,21.727842824985306,21.620498965915,21.617954054039707,21.515690194657115,21.635074261400895,21.512219541812858,21.671396016138257,21.535357029302137
11.480440139770508,1720454913.909755,21.447308503394645,21.659705131916784,21.57572292965626,21.589604709902122,21.464662643004473,21.599090496415915,21.424863427829138,21.573872012928145,21.475537770317604
11.622724771499634,1720454914.0520396,21.394756433820927,21.591661688435337,21.566211675283892,21.52132573084401,21.437333401166633,21.547702220164425,21.387582985394804,21.55418056341935,21.425300939643037
11.76338243484497,1720454914.1926973,21.43064086779875,21.70319021262272,21.644197334075013,21.727017846295237,21.377650507413446,21.64720488769588,21.47043988304904,21.720540480452414,21.511857162525974
11.930538415908813,1720454914.3598533,21.48907587562658,21.76508122825132,21.628127955752102,21.72205375714633,21.470102405887772,21.660979728183516,21.532574843070293,21.66213646355795,21.480051947371866
12.09463882446289,1720454914.5239537,21.474567756893467,21.660354706576907,21.543286983756126,21.658503926536667,21.440553689875916,21.555549578334297,21.372059728283322,21.6487872822461,21.485442790491238
12.27096962928772,1720454914.7002845,21.54380161302271,21.732353339720753,21.584522158528618,21.758956297488826,21.511177860847507,21.663182753093814,21.443845060160083,21.603725095949972,21.506087546421472
12.428529739379883,1720454914.8578446,21.51243004970432,21.761133523639582,21.706539063327472,21.688031875088033,21.538806743397203,21.68016622943845,21.492531441292183,21.658882446660837,21.545979248281917
12.572243690490723,1720454915.0015585,21.420396934248387,21.681844303362986,21.690635302643447,21.577735232794186,21.515728005798408,21.62238761499103,21.503927743727118,21.648993129535192,21.448395471691477
12.720035552978516,1720454915.1493504,21.46400622735135,21.71873494762182,21.544294681410666,21.604912214333062,21.476269668386617,21.642391680797004,21.403612657245333,21.5600277840173,21.54036137205759
12.862731218338013,1720454915.292046,21.57216610288269,21.71861086668691,21.56753879111382,21.76557101677021,21.515248871386156,21.66748456989731,21.5272803913273,21.677663743238277,21.52774313957662
13.007464170455933,1720454915.436779,21.609740049411325,21.786714886932288,21.728188984138622,21.58660406192979,21.463975540023572,21.669197394358193,21.551899205519003,21.634726391339846,21.557220684983633
13.154236555099487,1720454915.5835514,21.435211795274967,21.708685404783186,21.667275234369704,21.671670798402776,21.492132992518993,21.65871540334483,21.438914072637875,21.61799749327648,21.489356414144265
13.301010131835938,1720454915.730325,21.496206938576126,21.661632023022694,21.613048109973253,21.59130035766424,21.494355893635106,21.628548915582467,21.502454193233724,21.556827011581554,21.547340875546276
13.46409010887146,1720454915.893405,21.465204298990567,21.79927799731488,21.758796418324128,21.71947008248501,21.515876863226723,21.6456717206571,21.540865249975496,21.746767329823037,21.645440370349263
13.623093366622925,1720454916.0524082,21.39887973132376,21.551362230526255,21.623084476341454,21.54858579536218,21.3956401265891,21.591157062870572,21.3600038730366,21.572416645210254,21.44446463105814
13.7688467502594,1720454916.1981616,21.37476657485292,21.71048597920005,21.705396549841243,21.70632190231812,21.407625595895595,21.632291339739417,21.517071762987943,21.59943874464666,21.50087531280523
13.924792289733887,1720454916.3541071,21.421465224127925,21.672039188559694,21.572556537224038,21.606566694220106,21.51401968832938,21.738895927672022,21.42470475617772,21.629239571647215,21.456174021367506
14.065449714660645,1720454916.4947646,21.52059869039779,21.673759057422277,21.69897534201365,21.631190858022997,21.50602194027344,21.678385940254273,21.381996399124333,21.642758460078475,21.53401839200148
14.206106662750244,1720454916.6354215,21.57233686743308,21.63781131759402,21.633415623589244,21.61074282879025,21.398337141347984,21.543647237890493,21.42031994300863,21.600794420096314,21.52907078037265
14.347782611846924,1720454916.7770975,21.44899953467773,21.563763210919024,21.636178737832292,21.541320410236686,21.491111731381817,21.65353002154589,21.38605975121436,21.615125494023633,21.45108204219699
14.493001937866211,1720454916.9223168,21.570344478093332,21.75519059068543,21.645535796370677,21.516666429169064,21.538646968228598,21.57751678583492,21.510882006852203,21.643453641670703,21.476869014472516
14.637735605239868,1720454917.0670505,21.465282030887483,21.741061782327552,21.615904866889178,21.743375089959365,21.45116735815578,21.617061647783483,21.472917765220185,21.682996227772573,21.48541249380619
14.78450870513916,1720454917.2138236,21.465578286610533,21.618745999506846,21.62800019101901,21.616895152235852,21.358672711898244,21.523886229962862,21.433646492779953,21.561599711848114,21.497971953800846
14.927204608917236,1720454917.3565195,21.560649164189396,21.7084834267272,21.667998632471868,21.758682581459475,21.46532181963382,21.619183633863596,21.587950197761423,21.7293036201706,21.55370811985905
15.067861557006836,1720454917.4971764,21.400658483633144,21.59918224565742,21.52607025948914,21.60149584003327,21.25579319513828,21.47424122114951,21.367336451181203,21.527227130982066,21.475398144837154
15.214632987976074,1720454917.6439478,21.484184840193972,21.718783065354053,21.53277421155853,21.69426123894015,21.527915366930305,21.604497619746088,21.436750376900793,21.64984300780567,21.522593751601356
15.358349084854126,1720454917.787664,21.512251082373382,21.7047407590314,21.67281562196128,21.754708749885744,21.46412361685562,21.644359857945176,21.51595311159933,21.748231540949803,21.50345871513847
15.502653121948242,1720454917.931968,21.43811219530573,21.64426407736194,21.700018206848124,21.76247811212065,21.498503953723308,21.66277197330713,21.509610138529673,21.583185899319034,21.57046086929139
15.64738655090332,1720454918.0767014,21.467500091465944,21.62876495599762,21.58619508473904,21.64681040239351,21.485779456780325,21.62390651801589,21.477912423798347,21.567223219902186,21.470045336968028
15.807407855987549,1720454918.2367227,21.41251879185791,21.419923480707865,21.47591989704023,21.5439449307793,21.31741058674995,21.515485968088736,21.35582506477449,21.527748859645836,21.349808423849158
15.94908356666565,1720454918.3783984,21.50869200633476,21.84830445563578,21.752075742446394,21.770350568976404,21.580416919815764,21.72686062860233,21.48393430249354,21.722233941822594,21.50290754385691
16.096875190734863,1720454918.52619,21.47238130023645,21.623465914263257,21.64475035530107,21.50546891156903,21.455490054475604,21.669273242599893,21.473538225796112,21.650534102461254,21.484876034654526
16.24364733695984,1720454918.6729622,21.378597189493107,21.462131034388705,21.51488612605407,21.5882301867439,21.316810641469004,21.528074520435037,21.37558893241623,21.47855941469853,21.45194994848963
16.382267475128174,1720454918.8115823,21.366751324783834,21.685353873426834,21.656898421061406,21.590499616075743,21.38387527613729,21.66568961193429,21.447046569414123,21.63468879612491,21.531500935941057
16.522924184799194,1720454918.952239,21.499820019757166,21.679819309082855,21.693468487355084,21.637714038858068,21.484317475031816,21.638176742548225,21.48778821217154,21.615735398315213,21.477607353506173
16.665153980255127,1720454919.0944688,21.512865656508218,21.744450721043982,21.633638134353156,21.627854301878514,21.48579421965893,21.663713592420635,21.467283468348136,21.562610650086246,21.417997140024582
16.809887647628784,1720454919.2392025,21.4867832353505,21.682284649081605,21.693620394344624,21.719530247462977,21.471743285559736,21.6552172113982,21.568458293165143,21.695933797947195,21.546015584312098
16.954621076583862,1720454919.383936,21.34400251584672,21.578629385303692,21.452066400058033,21.654976902663844,21.496723670827677,21.52263797515372,21.310447427337337,21.516159453888573,21.483766299445456
17.09833598136902,1720454919.5276508,21.66910235517729,21.892329011492937,21.82802570400546,21.86387871482012,21.53977289368974,21.732720612925,21.50714902704365,21.764875403873347,21.629772936193625
17.24205183982849,1720454919.6713667,21.41255719117947,21.593958331123588,21.533108846375455,21.676319789302838,21.50534375108659,21.589331107281563,21.340590393585266,21.564343775906377,21.4937747632838
17.38273525238037,1720454919.81205,21.48675512108365,21.570512471886033,21.586013852641077,21.689890829564487,21.370595323205087,21.600820946040237,21.41594994647805,21.560795081605875,21.465004975829263
17.525038719177246,1720454919.9543536,21.519833453960093,21.673919301889857,21.64870246529497,21.720881287265406,21.54505312520484,21.66466548141319,21.505950829739053,21.71486655935051,21.55546475448425
17.669771194458008,1720454920.099086,21.513419803012756,21.813245126158904,21.729968193696322,21.655013767537813,21.632804106054085,21.685782690877907,21.516890452229802,21.724184848014755,21.64599114450284
17.81450629234314,1720454920.2438211,21.574308728066026,21.71149977621284,21.614102764171047,21.68767181926997,21.44103493168341,21.61225190940105,21.46671910539449,21.548858329908022,21.514383708758796
17.969433546066284,1720454920.3987484,21.57423660728155,21.701017452009175,21.779901363267456,21.644106618776984,21.50389958171549,21.65613678682285,21.432169889998182,21.674644490852454,21.52171561744217
