Relative Time [s],Absolute Time [s],Thermocouple 1 Temp [C],Thermocouple 2 Temp [C],Thermocouple 3 Temp [C],Thermocouple 4 Temp [C],Thermocouple 5 Temp [C],Thermocouple 6 Temp [C],Thermocouple 7 Temp [C],Thermocouple 8 Temp [C],Thermocouple 9 Temp [C]
0.17114830017089844,1707952464.0877495,24.579589935568045,24.34674581608704,24.547746989509566,24.36520900342484,24.536901716104776,24.353669547843,23.680940425039083,23.751603232391385,23.871673440508054
0.3926999568939209,1707952464.3093011,24.455509752918875,24.531660815615325,24.498201154014318,24.223331666420094,24.503047099519474,24.41397057280286,23.670383972888313,23.775453854113795,23.890211058330195
0.5518753528594971,1707952464.4684765,24.502237993226156,24.36423541741621,24.47085432266551,24.153736442678884,24.39631449302557,24.277686458368777,23.61622721799712,23.719454864563318,23.796811539939846
0.7021784782409668,1707952464.6187797,24.33755716890295,24.436332424912283,24.401485163664088,24.17345053727208,24.33732637515252,24.289781825213364,23.669898742283934,23.674286477741987,23.850474284459445
0.8458900451660156,1707952464.7624912,24.398399855061317,24.36008955603404,24.449632013055176,24.342549453407347,24.45309355876144,24.27954124049222,23.652955219590353,23.680205502062485,23.825913818955897
0.9977633953094482,1707952464.9143646,24.403332225804558,24.396178026995578,24.56971183360095,24.287936215136398,24.48525600370226,24.37217650207945,23.667821157510797,23.754649055309134,23.8911120730106
1.13681960105896,1707952465.0534208,24.485207352293944,24.484745827063573,24.512898509287137,24.291349612415875,24.485899639773926,24.386205727618865,23.711418199426625,23.78854452911966,23.907456293220957
1.2865073680877686,1707952465.2031085,24.436040607920916,24.418501723147788,24.347420205108758,24.279334552303165,24.462348407468397,24.34995891027423,23.584157851900528,23.76844203560838,23.941382524609505
1.4401419162750244,1707952465.356743,24.441924918933186,24.411231851141856,24.523845803843876,24.174889478080402,24.411231851141856,24.27621828350482,23.627229143005405,23.55424880403945,23.778717245685232
1.5981812477111816,1707952465.5147824,24.431179452806017,24.409486483984004,24.425871638503164,24.146367318027146,24.440641144824127,24.304477202980166,23.700536517166636,23.662894693526216,23.888495490000302
1.745054006576538,1707952465.6616552,24.545469405111355,24.541546650898784,24.529547550518913,24.372162534663783,24.463319374683124,24.388317465349523,23.80682090277681,23.782575584243805,23.956668224742952
1.901585340499878,1707952465.8181865,24.402780915681785,24.258995549918087,24.41639684904623,24.195059236779706,24.377856395126873,24.332390760875573,23.6538751988645,23.789657955739063,23.76079397172956
2.0400424003601074,1707952465.9566436,24.371311731479413,24.44331478297967,24.48277598217428,24.139808298682922,24.42508368933909,24.31984510780532,23.587511503268974,23.796502498033117,23.825134646098693
2.1813125610351562,1707952466.0979137,24.400642283814022,24.397411353168078,24.46964345192353,24.243469532823422,24.354023645719508,24.31132661600426,23.612013111387686,23.753343023918948,23.931365235430274
2.3223459720611572,1707952466.2389472,24.40245604437646,24.441457175067285,24.552914271814092,24.362068792355405,24.45022646848414,24.245975993086827,23.58195721864587,23.693270611303003,23.86299038762385
2.478076219558716,1707952466.3946774,24.47858756527042,24.483664360697393,24.54227656271942,24.25703171867598,24.483202834815206,24.331581036774,23.557221790977195,23.707333936315234,23.858349256097156
2.637631416320801,1707952466.5542326,24.36380155152307,24.366109431005206,24.47226662303129,24.154456655481635,24.373956184832316,24.252786802720713,23.626416485482356,23.69777556544678,23.797070171974266
2.8231382369995117,1707952466.7397394,24.400584355406494,24.278033083936787,24.50789198934802,24.269031602340927,24.45089333217973,24.393891702408496,23.550521796785517,23.677541862606123,23.883976035745867
3.003082036972046,1707952466.9196832,24.34471082273494,24.396176276974646,24.478100591151303,24.1995328958253,24.489638733599946,24.25515978027078,23.58791323701772,23.78766782374515,23.858785584464883
3.1757419109344482,1707952467.092343,24.571208596317383,24.398598151264004,24.560132809306587,24.28735612686462,24.512367190521246,24.371134885253063,23.674861552997353,23.78270193524815,23.89538040648664
3.352717161178589,1707952467.2693183,24.40633367901584,24.273858388751652,24.529332081806427,24.148522939910716,24.384178649641804,24.202998302241763,23.733636803033463,23.686758931048793,23.75626678740918
3.5104198455810547,1707952467.427021,24.42927406155019,24.540270899479882,24.485350796633398,24.228481932150316,24.44035117552293,24.453966641000026,23.626808947842733,23.81177872819283,23.884972935123734
3.66072940826416,1707952467.5773306,24.464318785091457,24.51254801900087,24.62353639280858,24.332542900289184,24.4513957579145,24.424164593328367,23.724691961613104,23.71522410070854,23.87524312301093
3.8169796466827393,1707952467.7335808,24.413771242315995,24.34292020952135,24.563997165709164,24.221054938734056,24.43961803350097,24.24413652302013,23.59951649202137,23.65078589431229,23.80527254182298
3.9679718017578125,1707952467.884573,24.373587986382052,24.306427162601338,24.436590784601528,24.073524930887398,24.48735962857664,24.252880186761406,23.593715534622792,23.7789217688017,23.859737691598397
4.132553339004517,1707952468.0491545,24.43792805178482,24.317919742090798,24.435158777675895,24.111797864139625,24.440697318878478,24.272682425979674,23.68258023823039,23.680501854999832,23.82066849012458
4.294918775558472,1707952468.21152,24.46381988033804,24.48481948314069,24.43197355886819,24.24964706036881,24.463127578868583,24.30042457910244,23.619810795625295,23.711491907390194,23.865277377532497
4.432426691055298,1707952468.3490279,24.404591903822876,24.35543474746405,24.485361775253608,24.247419719898083,24.420977131683603,24.277886575511253,23.694484134910883,23.707416069980557,23.834418094544894
4.579134941101074,1707952468.4957361,24.441650234981708,24.288868657596144,24.51111032848459,24.22054854676599,24.40980326765593,24.187541021658095,23.653281429874184,23.77243868825777,23.820236530836365
4.734551906585693,1707952468.651153,24.376557479510648,24.297164387500555,24.575014993848434,24.236692531356095,24.452252504280032,24.29093270927003,23.75718517226338,23.80567639259315,23.90426862974592
4.883866548538208,1707952468.8004677,24.32522324255606,24.195969674194348,24.422614958336446,24.126027907782948,24.318530128628126,24.173810389175685,23.502588087733418,23.548318972533934,23.699356038004016
5.0278167724609375,1707952468.944418,24.392232078553562,24.453618419150274,24.503463437574716,24.208052394557548,24.41946403842597,24.374692491187172,23.677959548666873,23.785799628276987,23.8825465300646
5.184070348739624,1707952469.1006715,24.61447066725892,24.366863678808922,24.464943987849708,24.114814682687168,24.466790121058384,24.208301154308614,23.598995856305482,23.72046820629492,23.82992043608522
5.338765621185303,1707952469.2553668,24.43446560019632,24.496772610000384,24.588842017566158,24.287222337669714,24.50484918446113,24.4372348760612,23.73523045034917,23.84214134184329,23.83175088921759
5.50752854347229,1707952469.4241297,24.51723635803637,24.400236903382417,24.460468956203904,24.293841918034538,24.48700692991496,24.30376639952837,23.637473098829872,23.761943112731398,23.802583342924912
5.662843227386475,1707952469.5794444,24.60608116088524,24.487475889695347,24.518397571721174,24.360549372658053,24.523012673059938,24.397474969932674,23.701449256386613,23.77973083798708,23.935122939274493
5.818657636642456,1707952469.7352588,24.575922740806355,24.316997969715445,24.542002934638433,24.253526663900246,24.422698376718888,24.38831224712814,23.73800376840044,23.721377427541295,23.88555156255984
5.973956346511841,1707952469.8905575,24.396626425893363,24.31400361283041,24.50093458235108,24.10349499021838,24.430550745940288,24.280306485407483,23.68951559981069,23.715148510453538,23.857619692690403
6.122207164764404,1707952470.0388083,24.62929030499472,24.45322750601187,24.585219582191296,24.368993459489246,24.521533089654362,24.444458236672034,23.72490846648012,23.822815220808355,23.94195416312624
6.274151563644409,1707952470.1907527,24.476916081114158,24.42222356932203,24.52999058481085,24.208042609676486,24.493761746433254,24.27290139531202,23.745610826991673,23.776091591250406,23.90447101620108
6.416989326477051,1707952470.3335905,24.496400643437877,24.353550744048125,24.482554943575032,24.241380886651704,24.466862938278226,24.376167964954107,23.655418778230572,23.680128753445587,23.858393679312567
6.574314117431641,1707952470.4909153,24.42365935332111,24.36296369628985,24.479274848937532,24.273875761019784,24.374733839767323,24.330422052546037,23.60733340773034,23.72256994074794,23.824171334775606
6.73853611946106,1707952470.6551373,24.422532434679674,24.500993390463904,24.585217261671737,24.263285544463344,24.419070792201566,24.371529793632213,23.598122470131557,23.77524607965913,23.84359387448961
6.916983127593994,1707952470.8335843,24.368237813909357,24.364545211584165,24.324387356768657,24.05293705974971,24.402855354578758,24.17205107392754,23.689282520816988,23.598754310856478,23.71861022255019
7.089585065841675,1707952471.0061862,24.496028536718544,24.408566890370487,24.631245687162014,24.269629264279995,24.436721535067715,24.406720658833688,23.673521192715505,23.695690552325335,23.899350701923556
7.257946491241455,1707952471.1745477,24.444513805516248,24.40620512181513,24.43643678508364,24.268652046289084,24.423974979352778,24.360971454385123,23.71641991026226,23.758909141029534,23.882672789548526
7.443949222564697,1707952471.3605504,24.474540842124966,24.43438702589807,24.43254083795822,24.19343317873212,24.468079408080033,24.330534111443427,23.64716770249962,23.736768266638247,23.885239781818445
7.6000800132751465,1707952471.5166812,24.448286462077085,24.51497706188572,24.5290531040822,24.377206879780307,24.524668782526295,24.32112459925608,23.60218691457219,23.68186112076325,23.978568064934166
7.755994081497192,1707952471.6725953,24.503018864802595,24.43955835074328,24.451096900140435,24.277082652305037,24.370324497209193,24.367093477018066,23.60615425334649,23.68467352008717,23.84054081439854
7.911532163619995,1707952471.8281333,24.451421023085583,24.37572594075707,24.48788202765784,24.139606742118772,24.371341004118854,24.204469575802143,23.67945551738435,23.653359903819698,23.842943198896297
8.078038692474365,1707952471.9946399,24.407270992281244,24.317494269715883,24.387423816413502,24.18477740642743,24.401501501543425,24.266948350918913,23.595320924092,23.671993494189525,23.759051979174824
8.233436107635498,1707952472.1500373,24.476827018478225,24.383132682369236,24.495980290516044,24.26842696721943,24.525055700155544,24.34412947194365,23.57740054208086,23.78593163056269,23.927701026229382
8.385389804840088,1707952472.301991,24.569782043457327,24.465018926635462,24.608084990303166,24.30623982079663,24.449557439641122,24.454403600890878,23.76072312127333,23.796976166088005,23.956290698845528
8.525561332702637,1707952472.4421625,24.366954492328816,24.40434143278297,24.515110047078466,24.25063139903411,24.46711169269226,24.298408450531344,23.708320069926728,23.865569381979004,23.91105435386405
8.700518369674683,1707952472.6171196,24.47242712244046,24.43158090710565,24.532885948990387,24.287337716556625,24.418426716245747,24.4380425569286,23.738809685008874,23.75266476762587,23.85541786546446
8.866215229034424,1707952472.7828164,24.420603727623064,24.529524669493416,24.547984769687353,24.16995207081595,24.45129653230588,24.3661391866347,23.71119908598549,23.717664974575644,23.90077244175422
9.023042440414429,1707952472.9396436,24.456011555894886,24.3593151813633,24.464780732536344,24.160587705466273,24.39970253504036,24.26422592694056,23.587054023335522,23.69975246958605,23.76371757900088
9.17194390296936,1707952473.088545,24.542226984172967,24.47946103934324,24.540842480183656,24.268984218223025,24.45107672573464,24.345609852926245,23.603131745415993,23.68488426239771,23.884390413120645
9.318707704544067,1707952473.235309,24.390073321661408,24.3988430271887,24.56314660569906,24.22435883627517,24.41661300435862,24.191813074822832,23.606979309896847,23.67279725965711,23.943648770356738
9.472757816314697,1707952473.389359,24.36604411504405,24.37065985968023,24.586885652638024,24.267954939996656,24.424201074164245,24.426278051220777,23.657297054834746,23.572771050826532,23.81547725245204
9.6314857006073,1707952473.548087,24.405050789341335,24.31827426001358,24.4657441104014,24.28203840723065,24.497358687779247,24.345969644650896,23.598179968421448,23.71872871370592,23.95008998418534
9.80385684967041,1707952473.720458,24.489057459855783,24.39074853161572,24.553438091401944,24.30674047430905,24.472442487288255,24.357284556276984,23.64345119216255,23.784315261960817,23.920081962416702
9.958195686340332,1707952473.8747969,24.481072869100743,24.539915961228655,24.59068000230055,24.368454509323843,24.426380565319057,24.367992934806107,23.83128114453991,23.737069865550218,23.949495670102607
10.108619451522827,1707952474.0252206,24.506981680179226,24.39159660519603,24.457598359157515,24.192644161580752,24.448829124886128,24.28797043354561,23.626517376852718,23.704342416904186,23.90269062268537
10.266907691955566,1707952474.1835089,24.353278618690705,24.377972914014517,24.396897136919005,24.257496408456916,24.471206161334457,24.338507932718375,23.6613817611005,23.70133291202769,23.863431992151863
10.41618299484253,1707952474.3327842,24.383577122950264,24.378961432810765,24.528730635000535,24.231710703676978,24.437810023012798,24.28248905367374,23.649438462062406,23.695394204126593,23.768134308523162
10.557378768920898,1707952474.47398,24.736432751359974,24.51631373765211,24.599151996840217,24.42816139121421,24.51354466220315,24.424699766557552,23.724765630953407,23.717376088427493,23.9390408286854
10.702205657958984,1707952474.6188068,24.499112193258075,24.383033935331994,24.581028788875727,24.236014569020305,24.46772843290375,24.366648139058906,23.773594550383862,23.81354163992763,23.950689990363333
10.846048355102539,1707952474.7626495,24.512415919141134,24.50110877650691,24.564796460502777,24.31533182943058,24.449879031375552,24.3827228910417,23.705623961655878,23.758504848645874,23.93883500466974
10.996807336807251,1707952474.9134085,24.395609424701657,24.495994760360446,24.622674808647382,24.10894130810369,24.415225674708328,24.366761359130077,23.745767102816277,23.727986270711796,23.886618110833865
11.135456323623657,1707952475.0520575,24.366195367248412,24.304111718727697,24.446275763004543,24.15200345040613,24.259566263017334,24.23440766649731,23.56506994283285,23.60779594059763,23.725341650899626
11.279229164123535,1707952475.1958303,24.509471937763784,24.45408874818291,24.468165574953495,24.143891069632378,24.30292451620534,24.337774916621537,23.617924337869614,23.722768287006705,23.888327544905035
11.435793399810791,1707952475.3523946,24.468932762257264,24.447009772015235,24.580617797655258,24.26491658770224,24.475855720436773,24.435932725514647,23.661416044884657,23.71406812439203,23.870393049591502
11.605958700180054,1707952475.52256,24.40313349708141,24.43844225077887,24.398287108572344,24.14532200475926,24.4513654311138,24.335282104166065,23.57432086894614,23.75583570564537,23.839885901872247
11.79102110862732,1707952475.7076223,24.447742402435725,24.411741615070923,24.463203915107393,24.246953661170416,24.465742351507252,24.307424950934426,23.67577431114815,23.716648638411,23.925846058721255
11.963916301727295,1707952475.8805175,24.25971120179174,24.33610669131758,24.43165124881659,24.101825704863376,24.379033539366425,24.2719440705015,23.502162252465133,23.59662451174904,23.790143004509876
12.133947134017944,1707952476.0505483,24.522681904835924,24.473760823613066,24.472837763287004,24.29536493982848,24.522220395439962,24.33321591531333,23.686338789564093,23.86852788861825,23.899697912064806
12.288697004318237,1707952476.2052982,24.37363185148807,24.32932001964614,24.393248495648816,24.21160800843027,24.318934174555217,24.26123324142061,23.561887897981066,23.679438490424896,23.84569694330899
12.442683458328247,1707952476.3592846,24.481621698631926,24.39877452548204,24.53169619211966,24.347309193464003,24.55292523819484,24.43339109963072,23.63462405918463,23.74062101965942,23.837371885699664
12.618356704711914,1707952476.534958,24.50052089627364,24.435444826811825,24.475829368747778,24.24550209995413,24.504905314774085,24.387904540030682,23.70595936124172,23.646378752359055,23.93108959056085
12.77128529548645,1707952476.6878865,24.471302669016133,24.358914092136384,24.30837008541134,24.226433063939623,24.39099332377698,24.285289854290717,23.584805040551664,23.6942707175125,23.78686928608703
12.928911209106445,1707952476.8455124,24.405807182184233,24.513345059991494,24.48173094524974,24.23178573327727,24.501114890541974,24.359419553328685,23.753199900512197,23.712326926380484,23.98039830249381
13.08317518234253,1707952476.9997764,24.813012464847162,24.44661007844896,24.752799875192462,24.272133502098484,24.561297105035116,24.42145578086906,23.709049659332507,23.912938224829773,23.986125708265167
13.23383116722107,1707952477.1504323,25.314125180803664,24.725738969629138,24.957810183090473,24.358845692459635,24.617529814740315,24.664367931694915,23.94542422660822,24.134726416827856,24.30945568143567
13.392626523971558,1707952477.3092277,25.532113339673906,24.764834330228947,25.147042679907635,24.414108746562253,24.836350037000713,24.728844003902633,23.979930102176738,24.2061583952248,24.557412226239187
13.551774740219116,1707952477.468376,25.899391458064848,24.925251623099008,25.424535909658157,24.555887262077608,25.003676383290802,24.91971554374917,24.16816250157571,24.298111755768062,24.64149127515267
13.69981074333191,1707952477.616412,26.112408469696547,25.102713552637642,25.84555368504303,24.626354718397156,25.149761394764568,25.04874439680643,24.396520727638176,24.482829523104794,25.008150442440478
13.8551926612854,1707952477.7717938,26.421371502537767,25.193367794228624,25.966565045947963,24.698822176758682,25.344177796710547,25.27015899881902,24.533385257892768,24.657061529020144,25.255631350749983
14.000407934188843,1707952477.917009,26.493433385884224,25.340222788568042,26.130595826032597,24.942166664403878,25.412622833858087,25.31001624130644,24.56703942510967,24.83190282199318,25.37042849233653
14.159123420715332,1707952478.0757246,26.89235486967443,25.5415587509429,26.5547578276406,24.999197043460885,25.758473340949408,25.58028846565653,24.94822138315701,25.067699025746656,25.79166364603164
14.307288646697998,1707952478.2238898,26.901053485221475,25.52859769648094,26.500580264752628,24.95993434198601,25.64109580182075,25.63394975471508,24.862590608793187,25.123230771093414,25.739983009873775
14.451635837554932,1707952478.368237,27.10915387840984,25.67680342780223,26.80938968488273,25.172100750303347,25.85013244139206,25.80219316455735,24.977903917351693,25.46425296048639,25.824780205195346
14.608537435531616,1707952478.5251386,27.399458494552576,25.717893752206916,27.052353029814952,25.14817681588196,25.86148596862809,25.89743864564727,25.144256234621547,25.429268559212755,26.059210818764438
14.761995077133179,1707952478.6785963,27.358853581294333,25.706499252110678,26.99308670867377,25.274911538937097,25.98675430296899,25.861616534496715,25.160991602825877,25.4457689620896,26.18676010816305
14.918498992919922,1707952478.8351002,27.528698543043642,25.78280284480723,27.189461511485348,25.226264733618454,26.10797025569043,26.09045842954578,25.34732579375031,25.623294328895568,26.342048277780695
15.084777593612671,1707952479.0013788,27.597563484775538,25.86975699812128,27.323254106170552,25.223561724961538,26.17692689675421,26.084992528091792,25.365605679629812,25.597539939975015,26.446693799932753
