Relative Time [s],Absolute Time [s],Thermocouple 1 Temp [C],Thermocouple 2 Temp [C],Thermocouple 3 Temp [C],Thermocouple 4 Temp [C],Thermocouple 5 Temp [C],Thermocouple 6 Temp [C],Thermocouple 7 Temp [C],Thermocouple 8 Temp [C],Thermocouple 9 Temp [C]
0.19090509414672852,1707929890.2000139,22.54432918859677,22.745426659727624,22.76877012454894,22.392904499024,22.649967635745046,22.51520174517638,21.954236399875718,21.893174792646025,21.82748365274785
0.40604734420776367,1707929890.4151561,22.445613952731446,22.71815096467756,22.659210899944544,22.42133900883402,22.649271682215655,22.40399944333345,21.876518540379084,21.823086169213788,21.717370602747174
0.5469057559967041,1707929890.5560145,22.58255480402484,22.71615696128126,22.6535184819882,22.4831518973907,22.746897076255948,22.437608565661062,21.835894637968444,21.851161113743487,21.84954195175702
0.6883893013000488,1707929890.697498,22.705396915287565,22.76941922494653,22.798540076775183,22.50614168242891,22.883356021659143,22.449271188230025,21.932450847134433,21.9440153979574,21.94008346385795
0.8283884525299072,1707929890.8374972,22.55249877304273,22.785258341380167,22.766999901621958,22.457716921861113,22.846040623376812,22.500947682351786,21.88770238308818,21.74544322747843,21.706810446281295
0.9681110382080078,1707929890.9772198,22.696727424444482,22.795880322943272,22.905192579621836,22.53769470257815,22.917902614134096,22.575143385818965,21.962400860737908,21.99848092107164,22.086363455553734
1.106762170791626,1707929891.115871,22.376738895715604,22.745676170157328,22.727417085823088,22.45742535786656,22.753996666953203,22.573474265664117,22.03150228670458,21.917016858829708,21.902676458359213
1.2482585906982422,1707929891.2573674,22.472601626206984,22.752990350312782,22.76200416025789,22.467515612523172,22.70884474770971,22.51791237106833,21.775836088060835,21.827188851745642,21.76843369744763
1.3879449367523193,1707929891.3970537,22.514948439520595,22.567192376770134,22.704725649118387,22.38479039603263,22.684847931447287,22.40074307766491,21.783973741028113,21.807337055212532,21.875573699469196
1.5263900756835938,1707929891.5354989,22.53691686058529,22.79672046763346,22.67283585328619,22.438665870383694,22.764594988255897,22.362833369785157,21.865866083874266,21.954221438714324,21.92438492565177
1.6814587116241455,1707929891.6905675,22.51744511942279,22.79897822964936,22.82601833236605,22.53871280838978,22.707915308421416,22.521837392453655,21.887786483248007,21.912535449302688,21.985160150996638
1.8243379592895508,1707929891.8334467,22.562129255059585,22.811527028556327,22.73618192199026,22.38273206316768,22.80390030033944,22.484455626301735,21.97505244171474,21.94035938278739,21.92162469130852
1.9641766548156738,1707929891.9732854,22.509867338298616,22.69825859320347,22.70796624377852,22.423867227481427,22.717211547205586,22.349652183435385,21.851753889497445,21.822839951698093,21.85221650654519
2.119075059890747,1707929892.1281838,22.514570957290363,22.627377876125877,22.650723796226828,22.429727159556666,22.69417827607937,22.421866648006272,21.642712001484092,21.88167249255581,21.866406425268107
2.2602922916412354,1707929892.269401,22.490428385555564,22.71719140471422,22.69615822857282,22.432169957999722,22.713493292417994,22.385468568949463,21.733297596626876,21.94934177037193,21.838317755340736
2.400993585586548,1707929892.4101024,22.713878161776616,22.73837792020196,22.9570029841059,22.54421422523552,22.82158065063693,22.58929092992795,22.014485887785032,22.042701150271608,22.05287697467284
2.5423970222473145,1707929892.5515058,22.492525873337783,22.713279042034813,22.757886716724112,22.517492802321435,22.777300901761897,22.47426267670381,21.93039282784731,21.95884146332196,21.953290565890068
2.684239149093628,1707929892.693348,22.483476790098436,22.62934172220743,22.716944050139404,22.432847301404696,22.770103078814472,22.372505079166796,21.828586403903703,21.81910252048025,21.869296812696007
2.82468581199646,1707929892.8337946,22.59517979810495,22.69226143798148,22.770151826470496,22.480751390645676,22.70936542879063,22.503638002585944,21.87720994216933,21.890625460794762,21.79995198763539
2.9634897708892822,1707929892.9725986,22.5684250754267,22.701566643229445,22.73161377220143,22.502541907267283,22.831919125955014,22.605641581104955,21.97718844220882,21.9875961340755,21.94272673852624
3.1175315380096436,1707929893.1266403,22.547373493620853,22.64607728781579,22.631746127163968,22.41490725973012,22.717268084850577,22.454440697785135,21.89737734600942,21.84070760553515,21.81063680384104
3.2747340202331543,1707929893.2838428,22.38817823390457,22.614037245453936,22.650558805277274,22.36182121462006,22.563875954061047,22.336619629632253,21.831082321865953,21.865547402806584,21.786900729040738
3.4299545288085938,1707929893.4390633,22.51959201832918,22.730632501458185,22.71722694699074,22.48607153961991,22.772234926130565,22.498092791540053,22.102942698174118,21.928792451750475,21.9669551462349
3.5730960369110107,1707929893.5822048,22.544140655042504,22.73137052266077,22.774590759775062,22.518711972108118,22.863106149324643,22.54807049115567,21.97162550527239,21.933462967380482,21.96121766730066
3.728203535079956,1707929893.7373123,22.500294939761883,22.690536896970077,22.774205417275468,22.475096448209726,22.792001507312598,22.46977926331134,21.843332482391784,21.993674245373903,21.836393152924224
3.869626522064209,1707929893.8787353,22.491391118232578,22.80736713006582,22.785180057797092,22.438450098187904,22.793962493103468,22.53762578187286,21.908903557560304,21.991473582827428,21.952617846506968
4.025000810623169,1707929894.0341096,22.483038679276458,22.666580455657027,22.66403789013047,22.44327505611189,22.655023293245673,22.379465381770842,21.81149335666038,21.802009331197212,21.76106519521609
4.163345098495483,1707929894.1724539,22.5225405937191,22.67949520660438,22.728726819207605,22.447638482528877,22.761777816561885,22.48647723584753,21.86003968578982,22.00135942977622,21.967592313600043
4.300543546676636,1707929894.3096523,22.598449647796347,22.646297936661338,22.71864437699202,22.389927558858037,22.77573236469037,22.526095469747045,21.949870576151902,21.886958324913607,21.849255568628372
4.445119619369507,1707929894.4542284,22.533384614865362,22.681554467154946,22.726394532927273,22.4827573687911,22.804513664378952,22.410164563195668,21.859787371494868,21.833880699826548,21.82832919363528
4.580663204193115,1707929894.589772,22.47833926840248,22.720590605073617,22.78206974934684,22.414762771709242,22.749943850069364,22.400197469697464,21.905328240248668,21.87479653490984,21.828072190598164
4.7197346687316895,1707929894.7288435,22.53727324258055,22.760559975315488,22.79869457221686,22.541896605969885,22.64499267300738,22.418677485110674,21.888890404000076,22.013786113549898,21.95920374875192
4.85912299156189,1707929894.8682318,22.605071557574973,22.761783519578994,22.763170253411502,22.378517144775476,22.877800981568278,22.469606741731692,21.890346193131034,21.90098597752437,21.86166454043126
5.001004219055176,1707929895.010113,22.505094277368332,22.68447197151835,22.79703071405294,22.446605420716704,22.820373104056358,22.48012707356364,21.916831396593984,21.955688354664712,21.918913052963145
5.141223192214966,1707929895.150332,22.483532689266376,22.73133001016128,22.7089102998427,22.433596773048613,22.776861444616475,22.414870234284592,21.834425152147418,21.949612750703885,21.84113318288526
5.280035734176636,1707929895.2891445,22.535309162739438,22.709134850607555,22.67261519554991,22.345734599580386,22.612054669072343,22.341572849437725,21.86448873933059,21.76224691196846,21.76964934267081
5.418971061706543,1707929895.4280798,22.505044967664002,22.787043419912308,22.65784144065315,22.385289820536713,22.791665755178073,22.473142329881007,21.758333721339294,21.884862852563415,21.827035922756448
5.559660911560059,1707929895.5687697,22.59748472641221,22.7881724622527,22.726000263340755,22.530447409921575,22.749113007504874,22.532065599080408,21.889231014915307,21.95075541062904,21.89917691308872
5.700232028961182,1707929895.7093408,22.602941035719233,22.750639466246533,22.797787922840783,22.482502756324113,22.784152053465352,22.53266767475871,21.854906469794596,21.98304385838284,21.937711701179296
5.843531370162964,1707929895.8526402,22.55717943847458,22.773297514875445,22.796640399311308,22.464478635412163,22.87336803748804,22.69055347572347,21.93008712692276,21.919678909150168,21.888684986290777
5.982296943664551,1707929895.9914057,22.471081090967207,22.770884490448786,22.680050427426742,22.428080375962892,22.788218399317554,22.43617203361992,21.873779719024036,21.88488226187629,21.833763407124184
6.121246576309204,1707929896.1303554,22.706810575494284,22.70496150376406,22.765054775003545,22.498770918612944,22.880840800288755,22.492760312306043,21.915361971836,21.903565832000943,21.910967345782385
6.273209810256958,1707929896.2823186,22.439597845237948,22.628925466630594,22.541316276716085,22.409542915469135,22.65157791934964,22.34203200108624,21.755766478284368,21.805963555865148,21.751371237435436
6.412152528762817,1707929896.4212613,22.536866726473637,22.833879283103855,22.65336973173195,22.610607134095915,22.861380746985237,22.541027755881444,21.949776802517334,21.93034838835911,21.8283437780585
6.553277492523193,1707929896.5623863,22.528256820814487,22.56085138877942,22.705088346986784,22.3465421628331,22.61216858193575,22.301455752028073,21.722109358145023,21.929135264465568,21.860901826012796
6.709529399871826,1707929896.7186382,22.535257618087364,22.712319175569945,22.731734149453512,22.55999243551188,22.901600825898445,22.490872284091495,21.92434384317554,21.94816685924732,21.941228168153998
6.8507349491119385,1707929896.8598437,22.5446803169138,22.677362417935583,22.678980395646743,22.50376299255169,22.7309855798106,22.38377650915452,21.847496474635367,21.90462847341496,21.87247761991039
6.988298416137695,1707929896.9974072,22.614653889531667,22.692549663201945,22.818049877061643,22.446130921141748,22.82521429030092,22.52172664827393,21.899934579095287,21.980654997269603,21.935785328026537
7.128331422805786,1707929897.1374402,22.45153553414394,22.667673920474243,22.617052718284842,22.436739517746872,22.707429612020864,22.366224585786565,21.812356331283464,21.87388487666217,21.832712006877735
7.269392967224121,1707929897.2785017,22.563366911195274,22.68310311618145,22.645658029319183,22.389056306785122,22.773705812070403,22.574462694116075,21.918699745931566,21.97513432331815,21.921706576755398
7.407429933547974,1707929897.4165387,22.503048448546934,22.70392217133809,22.630650184970914,22.403638525790413,22.59921341985981,22.39993938281169,21.83984220824336,21.875000936233167,21.80861479774593
7.548364162445068,1707929897.557473,22.57071301404771,22.685132269454492,22.727429770344486,22.52054979085048,22.781743894223652,22.550139427992193,21.90083876475649,21.861748629151517,21.938771105294567
7.686903238296509,1707929897.696012,22.67952914706642,22.63769213756136,22.77244333647939,22.475876894972693,22.717435367562324,22.49899478246438,21.905871493719435,21.872795458450202,21.843882054073784
7.828622341156006,1707929897.8377311,22.602807682071376,22.733402766519568,22.776622925302416,22.457864051020515,22.74981275560598,22.532996651920524,21.8614809390725,21.934802771911826,21.89895199205243
7.967105150222778,1707929897.976214,22.548459042772006,22.850090626761556,22.831371027578598,22.544529208015604,22.8172733450684,22.455526336506644,21.996067552341213,22.083025227622702,21.98889787266224
8.105855703353882,1707929898.1149645,22.417868334713592,22.751661741333162,22.812908069817418,22.476821044717322,22.76760922082093,22.453471516496972,21.8538477837132,21.877672273859602,21.907047415986685
8.24845814704895,1707929898.257567,22.46727627412049,22.678557715651085,22.795277139154802,22.406935893630582,22.768005173392254,22.406242307272663,21.85493798046314,21.914382567213156,21.96295366202934
8.386811017990112,1707929898.3959198,22.601195343334815,22.77870874563522,22.797891455034424,22.49647702414608,22.837642530144265,22.42064841067,21.967420188240215,21.76109521224811,21.976902837220607
8.527746438980103,1707929898.5368552,22.509185122441142,22.650886113931474,22.8182228264299,22.42017945889131,22.770844108999214,22.410931714283247,21.923699898244607,21.926475422485407,21.885998357455808
8.669531345367432,1707929898.6786401,22.632033115441274,22.815550551846112,22.803301582828627,22.497496252919433,22.690743469702124,22.534715104377582,21.888875115039333,22.01932142854373,21.893501126433144
8.808593511581421,1707929898.8177023,22.53168237684399,22.6897914005364,22.636166270992973,22.449614110619244,22.692796181163427,22.390659978317604,21.92169185004491,21.849294410233178,22.106249789139028
8.962624311447144,1707929898.971733,22.611189035960702,22.674292157163492,22.661117072994116,22.448214048608957,22.69601915125961,22.37561901953767,21.740792351218136,21.922372785598004,21.868248648225073
9.10547161102295,1707929899.1145804,22.608467705002834,22.626266423166353,22.682203416166345,22.44433638568698,22.72080293923874,22.426534791084062,21.907391107359945,21.797056965611482,21.828284692362445
9.245715379714966,1707929899.2548242,22.44329210602231,22.614589335818472,22.72114570203237,22.44467923274657,22.774766771184826,22.42456572823963,21.858004131505492,21.918836328914868,21.907271522387358
9.39926028251648,1707929899.408369,22.516293291304176,22.668857094568658,22.738890811678388,22.425901041017372,22.798057805195306,22.421508394061775,21.874374969546707,21.962729664375416,21.859340111593173
9.534874439239502,1707929899.5439832,22.54367158470955,22.714953529027632,22.80694033158377,22.607009650236165,22.757481029035553,22.394096392389923,21.932531059654337,21.975088024283508,21.92050380304617
9.677020072937012,1707929899.6861289,22.6363004239595,22.75163749671455,22.765736005003742,22.51494102296637,22.920345706430748,22.535284083406,21.981961030253835,21.994450196661695,22.002544953484225
9.817469835281372,1707929899.8265786,22.626522625449937,22.731922216879177,22.752261349502213,22.502156887464057,22.76289302201265,22.515333834053592,21.935634093279596,21.976109393913553,21.97911607308601
9.955301284790039,1707929899.96441,22.54584827620933,22.633688261934747,22.570351699021987,22.40829558220033,22.717129888778317,22.366217289028153,21.75798834536584,21.838487502873292,21.9212939272225
10.094212293624878,1707929900.103321,22.416002601131602,22.64139373812947,22.685541993687355,22.42617507030326,22.751183310055758,22.50130978412563,21.888989885369185,21.88135692628451,21.819366153815196
10.235077857971191,1707929900.2441866,22.503023389726422,22.662523301257146,22.614444550512683,22.380262420879898,22.706901859858718,22.475513148360907,21.866648894151545,21.89579302079721,21.849532155027468
10.37381386756897,1707929900.3829226,22.42439828884536,22.673826621311836,22.701563146777247,22.45537756491532,22.734383816418106,22.397117326246462,21.912655129162374,21.854829609090277,21.934628057295644
10.512784957885742,1707929900.5218937,22.413257417574762,22.67100933091701,22.60027791317423,22.339966512722107,22.532316084855044,22.371641714708844,21.693090266040613,21.867276538668694,21.726402841964163
10.652310848236084,1707929900.6614196,22.55454050471746,22.708717052385147,22.69091964076406,22.52680035114905,22.737608353304676,22.433634668223693,21.936929712674893,21.91333775759246,21.931610000777848
10.791479587554932,1707929900.8005884,22.443361525045123,22.677992810332057,22.674294568884918,22.367529340027286,22.631301618406575,22.343715133231164,21.816437514460535,21.82684667489273,21.868251061665536
10.945944547653198,1707929900.9550533,22.531014712665726,22.54257314979809,22.690741791018706,22.29843377334681,22.573318014708555,22.34721963255702,21.76928452826159,21.806527291724894,21.85926651759622
11.101706981658936,1707929901.1108158,22.584566448741594,22.71724384063485,22.66362002222526,22.423668337403896,22.685578361014894,22.395693764312586,21.91261873693745,21.935516832421968,21.932047453611652
11.258496522903442,1707929901.2676053,22.53776711879816,22.733549826816006,22.712979222422476,22.430962188267586,22.729158381139904,22.307268515790046,21.825081089531043,21.896092270460514,21.74967024179126
11.396459102630615,1707929901.405568,22.449265680478153,22.524167683493854,22.60784859549159,22.33366640607516,22.58057207596169,22.33505366753502,21.839924703417793,21.758500337754825,21.80800334306733
11.53495478630066,1707929901.5440636,22.511954438467697,22.700345343664388,22.641635491390115,22.44375609067905,22.66082054451399,22.37832803601135,21.80225931917895,21.83418084020233,21.79254389645299
11.674036502838135,1707929901.6831453,22.53827066189477,22.6503817678247,22.69499194255693,22.471461001004915,22.750463261750486,22.358869672465254,21.817257619468712,21.943086344106018,21.91671897532402
11.813902139663696,1707929901.823011,22.545849082404597,22.657034857025323,22.703031575616478,22.43673302771778,22.74463502404706,22.484588191786752,21.94141717383385,21.955757086424708,21.914355879013197
11.953362703323364,1707929901.9624715,22.5283012932861,22.700741255563432,22.702821468868212,22.401612744051384,22.76337709909032,22.50934515380673,21.904662453890126,21.78484388009379,21.778135518543472
12.090929985046387,1707929902.1000388,22.483614974044826,22.71315296029343,22.80976217118069,22.377960919529876,22.744586535780527,22.509506798306525,21.920783621223936,21.907831052166543,21.936280251360827
12.230583906173706,1707929902.2396927,22.49500428407221,22.721766380342025,22.66744935256147,22.408771844250758,22.666987068706117,22.532685557161226,22.02538555052591,21.903960588947523,21.932178592600387
12.381959676742554,1707929902.3910685,22.617998319974838,22.73356840122379,22.77493959725973,22.609214507595862,22.78256652259617,22.504265759291165,21.90721318392461,21.90929485787134,22.084141874781366
12.521517992019653,1707929902.5306268,22.536306784641134,22.651885267959194,22.71868421002894,22.401296090716027,22.674999538431408,22.40291446531555,21.79285462337419,21.94181530497877,21.816680387276843
12.662811040878296,1707929902.6719198,22.521369525204953,22.687338711388414,22.68525846939002,22.45525241851619,22.646426578012107,22.418955714418367,21.90582231218522,21.900965052253465,21.823246078341096
12.803303956985474,1707929902.8124127,22.471953306515157,22.675143988414817,22.765978448669465,22.442361615483392,22.650873995053807,22.445367057042688,21.768247626306863,21.904952805829343,21.85059653234969
12.93955659866333,1707929902.9486654,22.599685576210877,22.83798193652215,22.780434882343837,22.509068845358776,22.858088041502842,22.50236476678459,22.051019414312066,22.08709666156391,22.046394043320287
13.07885193824768,1707929903.0879607,22.569170031870915,22.724500223471537,22.784592447778977,22.45635727863606,22.7806634392198,22.56200398420355,21.89096807753254,21.946247583059492,21.91363531226496
13.2205491065979,1707929903.229658,22.49545115860628,22.673674688420576,22.675292671445742,22.299858262375814,22.594621822277354,22.286910019338478,21.819286896560005,21.860691557741752,21.83409097036459
13.364585638046265,1707929903.3736944,22.583077030306725,22.75250397359745,22.696570483634595,22.479512928461432,22.715061202089128,22.47142158188949,21.921536729824865,22.03879695305505,21.932407515111098
13.503698587417603,1707929903.5128074,22.482542522759612,22.66585323790578,22.692665413983338,22.442085317773373,22.706071261879433,22.44277888209112,21.939370523398033,21.88547849531452,21.935207281648587
13.642371654510498,1707929903.6514804,22.627691455077517,22.77538662939529,22.779315656452816,22.51419104775145,22.835707232722964,22.535458798189325,21.972190656999807,21.99531883343779,21.86857065791346
