Relative Time [s],Absolute Time [s],Thermocouple 1 Temp [C],Thermocouple 2 Temp [C],Thermocouple 3 Temp [C],Thermocouple 4 Temp [C],Thermocouple 5 Temp [C],Thermocouple 6 Temp [C],Thermocouple 7 Temp [C],Thermocouple 8 Temp [C],Thermocouple 9 Temp [C]
0.18791437149047852,1707931659.5447907,22.838167598730145,22.837012064674415,22.814363356459104,22.79356311896615,22.900102478525145,22.714056431648405,22.377939855097747,22.2107689355629,22.406377259407467
0.4072611331939697,1707931659.7641375,22.712483197030117,22.709478469110216,22.682435555827755,22.66764257548823,22.798692346221838,22.540276204436513,22.152078308854513,22.027429067859675,22.124559524224505
0.5485091209411621,1707931659.9053855,22.811049600705186,22.85935102723809,22.843404853664783,22.690864768285607,22.809431813520717,22.555872615377965,22.15866151769888,22.20305990727051,22.182248378768378
0.6891274452209473,1707931660.0460038,22.75329041405713,22.730177755979522,22.887796623966985,22.72463064717245,22.938405600089926,22.66522863809896,22.240540079110094,22.186431100295113,22.1998429685042
0.8274295330047607,1707931660.184306,22.768957115758464,22.720882923583826,22.8077847660338,22.705859315989404,22.677429477413646,22.660325000038245,22.109375743538322,22.168113295292983,22.135276141340714
0.9659528732299805,1707931660.3228292,23.02196118995049,22.927912269350937,23.05431033895816,22.878227212410764,22.96257495502028,22.739559574478385,22.28807787164005,22.30726894476316,22.279753931418345
1.1071624755859375,1707931660.4640388,22.953708409097796,22.913268183847702,22.975661061429353,22.83284556223175,22.978202919622802,22.74733241628028,22.287067507832216,22.294466520979704,22.306489814074222
1.2506778240203857,1707931660.6075542,22.75667343424712,22.69773539281427,22.844959134263373,22.734023102324908,22.75598006352746,22.62030228204368,22.21548314783077,22.101016267002013,22.182878607717292
1.3878648281097412,1707931660.7447412,22.830306619067866,22.81366669681498,22.848332922481376,22.735548203243017,22.81343558504307,22.661584851935967,22.23111415103818,22.219552524382394,22.259324024469446
1.5293817520141602,1707931660.8862581,22.82769853300195,22.763910673684457,22.920600436090123,22.629851899306654,22.790951622666498,22.656896078921804,22.243765878063776,22.244459564154564,22.185957210274136
1.6680614948272705,1707931661.0249379,22.832913923422396,22.82182069521697,22.86549964564674,22.789233701983903,22.872201556001755,22.740698125680847,22.282742715492763,22.045022786283745,22.337309507769326
1.8096415996551514,1707931661.166518,22.873396122859667,22.92955187196213,22.956588819366488,22.795512909737855,22.787886072509345,22.77032103783646,22.23838654163278,22.171327894659573,22.33364923536713
1.9503660202026367,1707931661.3072424,22.921340902118537,22.92064763336572,22.96108759163722,22.79053659246551,22.955541626795796,22.72466644918303,22.360346393671186,22.310405026102064,22.350866951997094
2.0892248153686523,1707931661.4461012,22.94216965861019,22.980066989896617,22.969437380345664,22.813910015137346,22.848807337790703,22.763757654282454,22.291707355956625,22.334944476186976,22.382110356608273
2.2344391345977783,1707931661.5913155,22.960461984184466,22.918404373610564,22.85693271264928,22.80216000507083,22.85485278535462,22.73305475222949,22.30839176379302,22.209427176299183,22.297524580412148
2.3717703819274902,1707931661.7286468,22.817048871079002,22.777990422736682,22.910644933623185,22.68946831097697,22.90625418226371,22.67606226479661,22.26756357718453,22.27080070721737,22.28074326296479
2.5094757080078125,1707931661.866352,23.020844179327735,22.951983514876886,23.079996257584938,22.928874958212848,22.97832668658046,22.67834758515379,22.30222054403125,22.35886724483709,22.37898192042386
2.650160551071167,1707931662.007037,23.069893232657087,22.963370054577254,22.94164824610162,22.77340548708874,22.959441673682885,22.76670298553518,22.320550082831875,22.371415812929822,22.4280590426417
2.789454698562622,1707931662.146331,22.98108650024918,22.838271693937575,23.03631257529584,22.778413466831612,22.95982719940861,22.689660251175532,22.270761495517956,22.241858219957034,22.36833349655875
2.928436756134033,1707931662.2853131,22.957839646535735,22.852230200059424,22.833741744279838,22.722342340842964,22.810861857624023,22.751002166198706,22.1938537792427,22.231545102659435,22.219752246755256
3.0670433044433594,1707931662.4239197,22.871086740933816,22.834341254410717,22.80545244660625,22.69682386540869,22.792047786736177,22.724097562232537,22.249487136353334,22.238850616823242,22.23145123993438
3.2229180335998535,1707931662.5797944,22.80647293566492,22.882968802628273,22.828428477552237,22.704547366365063,22.773423256043014,22.601456762519977,22.138819792323556,22.059960737430416,22.270855956847292
3.3639190196990967,1707931662.7207954,22.87878408239886,22.934708474248133,22.826785755755132,22.699206303653423,22.801825701213435,22.671932001966702,22.2523329746296,22.25025192956027,22.29117844660293
3.5039901733398438,1707931662.8608665,22.862448143417996,22.793115493016032,22.810217945569132,22.690957572552676,22.811835731618256,22.63525216407145,22.186734801282952,22.217489358825542,22.239687618172148
3.6595678329467773,1707931663.0164442,22.82436290305305,22.763810566936467,22.715505022187173,22.68430177042489,22.694934086977568,22.57635494630593,22.174757449343122,22.16504520768455,22.206206041594758
3.8002238273620605,1707931663.1571002,22.88734828436336,22.869091509024507,22.888734862723183,22.770176208473014,22.96591834640245,22.65530332986898,22.255352526836703,22.299747124517577,22.309226995071633
3.9364540576934814,1707931663.2933304,22.855079748700078,22.818102625970784,22.77627078425706,22.68058324517617,22.876109942370114,22.72288091751218,22.277173090787063,22.168956049349454,22.199711089551116
4.077157497406006,1707931663.4340339,22.81472058353901,22.78352009244371,22.9515302478492,22.762025915462097,22.86741277275436,22.673502543922442,22.295755359191798,22.26060965566916,22.26477170387964
4.2165796756744385,1707931663.573456,22.797046927989737,22.809295965394945,22.907283440806072,22.76677043085679,22.786877814071026,22.663454398163488,22.08984339893927,22.227203622171306,22.1999178995792
4.3586366176605225,1707931663.715513,22.880011139647433,22.95303574000873,22.869149478481052,22.740188088654538,22.800741701047468,22.739956961731266,22.30466067646351,22.253098261675873,22.250785990704166
4.499424457550049,1707931663.8563008,22.83380832574183,22.82225288653893,22.840510425841465,22.725413622215335,22.856918846382552,22.553208611367953,22.277163359378193,22.08384531569344,22.21450047788125
4.635573148727417,1707931663.9924495,22.980823692447505,22.804266762448723,22.79802667551177,22.724529704077295,22.859963776132815,22.6563442457132,22.175230510801363,22.29685767112916,22.241132780767305
4.777681589126587,1707931664.134558,22.953161686312168,22.907406328888893,22.890074265166046,22.83206767244382,22.964946853797915,22.78399618711032,22.289295097635698,22.246518688321235,22.32328384759786
4.916710615158081,1707931664.273587,22.843987565820207,22.798921088351605,22.735593846884758,22.706933627861705,22.779507277807642,22.626033900632127,22.107213035259853,22.29451542946481,22.24272132322727
5.056058168411255,1707931664.4129345,22.952838589271117,22.951914256885484,22.97663988484713,22.795228878394376,22.919099961933988,22.73120804231912,22.421221639410664,22.304232195565692,22.236252528818728
5.195648670196533,1707931664.552525,22.885468690791317,22.8561189964257,22.883619913865445,22.732009817478936,22.910657971975184,22.69988248421648,22.214393875848984,22.2275741808682,22.256940273504647
5.337095022201538,1707931664.6939714,22.963851652617837,22.932655319528433,22.90469342182909,22.69830839543648,22.935428362175383,22.683515624243643,22.280568962461793,22.289355335678042,22.34530905758655
5.474532127380371,1707931664.8314085,22.896134055917397,22.820794640625355,22.88573474511153,22.6636286352116,22.777576185125984,22.652533732420768,22.265993031206822,22.222290808675695,22.21026662079584
5.630334138870239,1707931664.9872105,22.828884163051395,22.927101011747073,22.870482939644837,22.817097562022898,22.89266832161584,22.696219970225794,22.392697497665417,22.359866861825232,22.355011545919133
5.771108627319336,1707931665.127985,22.96209900007096,22.918654911549478,22.929053916238573,22.788312522049726,22.823210642249656,22.6947062386065,22.290376265258097,22.222395765902178,22.261935941049234
5.911025285720825,1707931665.2679017,22.944416291631484,22.884563741283817,22.85752505252622,22.758608730522976,22.873702124311123,22.680255262169027,22.336729904262903,22.193833245083958,22.204238950712824
6.047914505004883,1707931665.4047909,22.83006425928051,22.910487080779372,22.9805056898234,22.817353227103595,22.82405542568579,22.699249290294805,22.331452850736156,22.19063668345487,22.438960772262615
6.189148664474487,1707931665.546025,22.83842881331377,22.85969042210797,22.81647346747272,22.754765086147014,22.91261158550913,22.740897566692734,22.26074482677511,22.28317345836149,22.211492766557765
6.329114198684692,1707931665.6859906,22.86443452479245,22.765518812952177,22.87460293443212,22.71259069959454,22.847795109739437,22.657579796295714,22.253236499780513,22.241212640603443,22.220170579688936
6.472700119018555,1707931665.8295765,22.842753232448917,22.820566861093102,22.878574049806222,22.732048110726513,22.86609466937605,22.628497731795424,22.264146568305367,22.252816506026207,22.35524539183629
6.62930703163147,1707931665.9861834,22.991103585877383,22.833037051353298,22.89797644554574,22.793054696819983,22.88803934475069,22.658074829537203,22.272692143719883,22.29974489434375,22.27616048124673
6.785641193389893,1707931666.1425176,22.78500728380207,22.80673213322978,22.895707171812884,22.68423545619539,22.84070525526892,22.66597537216921,22.15087283909822,22.11687891315076,22.16867877453497
6.942501068115234,1707931666.2993774,22.866382644108644,22.847432212607547,22.893883309298594,22.861529515384685,22.779254227451197,22.73973220808881,22.21865131127758,22.325707541374037,22.261197548902743
7.098979711532593,1707931666.455856,23.015322921637043,22.936294160465074,22.98066187265111,22.83045157142732,22.90902563015785,22.761810308052887,22.406056549598173,22.360510104920944,22.38732955370555
7.237507343292236,1707931666.5943837,22.768940503792088,22.888423674500373,22.864158298361772,22.713007833445207,22.811465955980424,22.645977407353495,22.214344574047793,22.136878275284303,22.34382863995147
7.376475811004639,1707931666.7333522,22.81849021518619,22.896371829868613,22.999435302649296,22.743376702981845,22.847840896156836,22.63936507380886,22.270624189237665,22.227384609872715,22.175124946291223
7.51469087600708,1707931666.8715672,22.895597797462315,22.88219421688965,22.831351589754497,22.850764501751698,22.905765923863555,22.733819727175288,22.281179617761705,22.225916420089924,22.299908373481156
7.654197454452515,1707931667.0110738,22.76216133964509,22.90567913772434,22.98239929777717,22.702530182798903,22.848828876943998,22.67155771140729,22.23091668356309,22.26467596340257,22.536794408480713
7.7945756912231445,1707931667.151452,22.847204435147376,22.779488673817912,22.843968962901346,22.767008189248507,22.87285677693583,22.597352278377876,22.235534589134,22.220735743640688,22.324323597329826
7.934332609176636,1707931667.291209,22.82521598358758,22.892466788746056,22.932907766392717,22.7397022554297,22.962486526567105,22.64562962367191,22.30324978922295,22.31180477134888,22.380704698159906
8.07648491859436,1707931667.4333613,22.8915440855909,22.80603542130804,22.91257359384362,22.7334634884611,22.938686608578482,22.848790569889722,22.26556253408947,22.28012957205154,22.278279799852065
8.219119787216187,1707931667.5759962,22.840997052337872,22.796854915782095,22.900620839979354,22.78506797775718,22.925116513911394,22.657946067442154,22.18492647211497,22.26770764663375,22.157639731212914
8.359615325927734,1707931667.7164917,22.946623922529394,22.915889289966767,22.988680471042997,22.854417490803748,22.871287907283108,22.7256855351578,22.329690319398416,22.34818706389635,22.33269606098617
8.499659061431885,1707931667.8565354,22.94315932368446,22.856267986924337,22.867360873805513,22.83985955684324,22.86643647076485,22.72684285514303,22.228648182392174,22.31813137206601,22.333853785039167
8.641318798065186,1707931667.9981952,22.822454875587873,22.96134332723949,22.89247899579565,22.7593600868155,22.81390377536052,22.713596809428246,22.221639595854203,22.31505398804854,22.20753427746039
8.783385992050171,1707931668.1402624,22.964211437301376,22.97692080069364,22.908057428941092,22.668389112782712,22.83618542821374,22.7081447790018,22.319311029090557,22.29595824226995,22.413642125437715
8.921350002288818,1707931668.2782264,22.871986774922124,22.787863320231793,22.869906875604563,22.66998741903988,22.820681463650104,22.662359728331545,22.312586132215625,22.17639247688802,22.17153637346857
9.061451196670532,1707931668.4183276,22.93029256541155,22.86697275334062,22.902099515159787,22.77267967923287,22.845711282868876,22.63908424787408,22.2273349134801,22.184324921586793,22.322598538074093
9.201446294784546,1707931668.5583227,22.96872193004226,22.729297725166592,22.8626513081486,22.678910440598855,22.897084922284158,22.721901568193303,22.260701364370256,22.217461405883,22.285210981405456
9.34323525428772,1707931668.7001116,22.88012100394463,22.872032543680437,22.885205149039635,22.791144726617,22.895835559575787,22.673962592092057,22.339914927704093,22.284192159274557,22.292284848000556
9.4824697971344,1707931668.8393462,22.821856297738307,22.87732133783985,22.957278597840617,22.796896133354597,22.96051374231434,22.75113438796668,22.229133838939298,22.305206529691134,22.244163803353402
9.622647762298584,1707931668.9795241,22.6789062053293,22.73437831973864,22.72189733308598,22.62042638390571,22.689076298223004,22.496059972034246,22.223931706335208,22.008170956493903,22.195258473711412
9.76453685760498,1707931669.1214132,23.047028250926896,22.943275914377992,23.03339542063009,22.8237985991386,22.95529226864123,22.761628376331295,22.362871359642245,22.272004373805537,22.364952197389613
9.905290126800537,1707931669.2621665,22.834775674433185,22.909883056711045,22.873138844165528,22.87152114669588,22.89370650808011,22.616126762122605,22.177776500360498,22.196738205545895,22.196969443894268
10.04506516456604,1707931669.4019415,22.948710389660814,22.917282543625277,22.931610053610907,22.768219339803302,22.875685506820847,22.622603584170037,22.282991406686797,22.309119049652974,22.34148874313026
10.181883811950684,1707931669.5387602,22.852971968205615,22.826163625485176,22.85505189899518,22.742961235298246,22.78017195664839,22.609362266810315,22.22951250320921,22.309284620530537,22.24223017414183
10.323415040969849,1707931669.6802914,22.956994446265334,22.937583377803882,22.921638319383888,22.77257569556261,22.85485147405656,22.717336601554013,22.255440849678152,22.261452719643987,22.370123319077596
10.463099956512451,1707931669.8199763,22.918856426119145,22.891125279151325,22.88326799584488,22.804923242435827,22.886041160960332,22.571474266508424,22.28317885387718,22.227684521820876,22.357167060380128
10.603063821792603,1707931669.9599402,23.021866207911494,22.93498098975482,22.966408338141864,22.849475644665983,23.021635139168847,22.87743892261929,22.392026916348193,22.322434042406616,22.41237219532211
10.740504264831543,1707931670.0973806,22.954774545463433,22.80710301476856,22.915258722244914,22.870657314418473,22.950615050913186,22.677672206387147,22.268711655205188,22.33275879790429,22.338076628522018
10.882009506225586,1707931670.2388859,23.007309646354674,22.90794438244703,22.993907405471784,22.85640961668493,22.889687943231007,22.756568702473807,22.27850364205923,22.265786378813274,22.292145638205266
11.037546396255493,1707931670.3944228,22.966429623426688,22.97313092883889,22.980987580541413,22.79749724535104,22.96227017226338,22.800501737412166,22.40245209399732,22.424184336920398,22.310663431734973
11.174962997436523,1707931670.5318394,22.89956847477871,22.846646694432007,22.915976029266982,22.768299378969854,22.98299030052752,22.660591773114916,22.323765597249846,22.204916172931938,22.358215721281688
11.331777334213257,1707931670.6886537,22.885202035817514,22.84637706967076,22.910622414758155,22.747459763355078,22.893521496158073,22.795995046911536,22.269853282168068,22.41852017308329,22.295056355945835
11.470745086669922,1707931670.8276215,22.888729715532598,22.787042746254976,22.83927402492561,22.699908161015568,22.88803642656432,22.619701383023422,22.203782714703305,22.213263389308565,22.29396152671624
11.613157987594604,1707931670.9700344,22.935373562396112,22.74378636122773,22.95686441068877,22.82606425377973,22.89816799882528,22.66774327840988,22.277277028518995,22.32652622467961,22.337161919554802
11.753198862075806,1707931671.1100752,22.92407979981459,22.928239393113873,22.958280440686547,22.748207293022336,22.769239493221917,22.701519021545792,22.271526021671495,22.29487931312498,22.265282980887996
11.892362833023071,1707931671.2492392,22.950611046546864,22.85447619391094,22.883825931362487,22.858404943544656,22.798085562609728,22.75486623128205,22.25390923669419,22.28304342515005,22.313564150918427
12.033151149749756,1707931671.3900275,22.826640617492945,22.80584060796931,22.811387314942166,22.747598527137438,22.787582503549526,22.577015041927936,22.25265021627692,22.2591245524237,22.212184776248094
12.173384428024292,1707931671.5302608,22.875717414495178,22.798065477830857,22.899289257944446,22.75022365863252,22.7550772695833,22.584726079366565,22.285797976705506,22.20856780178269,22.08068710376717
12.314252376556396,1707931671.6711287,22.842189262540302,22.781869008258163,22.85189566665591,22.69635197372168,22.843575896852144,22.511659187836337,22.256414319372663,22.055692212157155,22.20901195916874
12.453103065490723,1707931671.8099794,22.734967578896907,22.799912659007532,22.813317224776956,22.668863030854506,22.89743876698055,22.68712306791981,22.195616776209956,22.122543022555575,22.197697921706286
12.598236083984375,1707931671.9551125,22.958386884142133,22.79661788779507,22.880971782675356,22.810946942605163,22.887673600358987,22.715955758226762,22.27093886074569,22.438100879970005,22.256371704431423
12.737678050994873,1707931672.0945544,22.98443158637359,22.849012574224158,22.906325010998472,22.847857051361792,22.8554834802106,22.66480718642578,22.28312634070394,22.207745873964203,22.279889245946926
12.876603126525879,1707931672.2334795,22.768735308480363,22.806407400807966,22.966326341636435,22.699396860410282,22.89723122268733,22.679981327070212,22.237031293375168,22.215295451203495,22.139679219063176
13.016531229019165,1707931672.3734076,22.897154517341104,22.828517342620987,22.858792170863232,22.771663163707622,22.812570729921315,22.635062684274878,22.27556932077065,22.330367670395347,22.345627497319313
13.156452178955078,1707931672.5133286,22.955621624963808,22.867806854588753,22.905013428134854,22.85810058844812,22.870811158000063,22.75571746714437,22.273027598960724,22.304473460893306,22.395800230968533
13.2968008518219,1707931672.6536772,22.970123016025347,22.957413575300425,22.891553249507954,22.856195053636725,22.914662577558406,22.802577880752125,22.28013874095178,22.301873337471502,22.349734220183358
13.438035726547241,1707931672.794912,22.94447905780441,22.75936487617045,22.97405751169671,22.83031737485344,22.882315537442132,22.7129082016331,22.241761504683733,22.32546337006288,22.310203270822228
13.578951835632324,1707931672.9358282,22.897571526419185,22.781787231162856,22.93431493627062,22.831707677010847,22.85204499852415,22.667377825274446,22.294484183738387,22.29286565377476,22.370090071702307
